"S22 POLAR"
"Frequency (Hz)","U","U",
3870563143.0187, 3.086822e-001, -1.038252e+000, 
3870629468.8525, 3.084691e-001, -1.038589e+000, 
3870695794.6863, 3.081662e-001, -1.038858e+000, 
3870762120.5201, 3.080074e-001, -1.039063e+000, 
3870828446.3539, 3.077284e-001, -1.039353e+000, 
3870894772.1877, 3.073860e-001, -1.039611e+000, 
3870961098.0215, 3.071719e-001, -1.039820e+000, 
3871027423.8553, 3.069326e-001, -1.039940e+000, 
3871093749.6891, 3.067198e-001, -1.040005e+000, 
3871160075.5229, 3.064804e-001, -1.040086e+000, 
3871226401.3567, 3.063608e-001, -1.040140e+000, 
3871292727.1905, 3.064475e-001, -1.039937e+000, 
3871359053.0243, 3.067235e-001, -1.039664e+000, 
3871425378.8581, 3.069615e-001, -1.039500e+000, 
3871491704.6919, 3.072056e-001, -1.039287e+000, 
3871558030.5257, 3.073827e-001, -1.039095e+000, 
3871624356.3595, 3.075607e-001, -1.038948e+000, 
3871690682.1933, 3.078738e-001, -1.038837e+000, 
3871757008.0271, 3.080459e-001, -1.038647e+000, 
3871823333.8609, 3.083642e-001, -1.038478e+000, 
3871889659.6947, 3.085641e-001, -1.038372e+000, 
3871955985.5285, 3.087762e-001, -1.038263e+000, 
3872022311.3624, 3.090597e-001, -1.038110e+000, 
3872088637.1962, 3.092726e-001, -1.038009e+000, 
3872154963.03, 3.094772e-001, -1.038065e+000, 
3872221288.8638, 3.097085e-001, -1.037974e+000, 
3872287614.6976, 3.095258e-001, -1.038243e+000, 
3872353940.5314, 3.092009e-001, -1.038564e+000, 
3872420266.3652, 3.088746e-001, -1.038876e+000, 
3872486592.199, 3.085977e-001, -1.039237e+000, 
3872552918.0328, 3.082332e-001, -1.039507e+000, 
3872619243.8666, 3.079436e-001, -1.039786e+000, 
3872685569.7004, 3.076800e-001, -1.040034e+000, 
3872751895.5342, 3.074689e-001, -1.040287e+000, 
3872818221.368, 3.071764e-001, -1.040533e+000, 
3872884547.2018, 3.069544e-001, -1.040760e+000, 
3872950873.0356, 3.066993e-001, -1.040920e+000, 
3873017198.8694, 3.065458e-001, -1.041059e+000, 
3873083524.7032, 3.064189e-001, -1.041215e+000, 
3873149850.537, 3.062212e-001, -1.041371e+000, 
3873216176.3708, 3.060737e-001, -1.041481e+000, 
3873282502.2046, 3.060577e-001, -1.041525e+000, 
3873348828.0384, 3.062175e-001, -1.041578e+000, 
3873415153.8722, 3.063417e-001, -1.041579e+000, 
3873481479.706, 3.065090e-001, -1.041601e+000, 
3873547805.5399, 3.066768e-001, -1.041595e+000, 
3873614131.3737, 3.068048e-001, -1.041549e+000, 
3873680457.2075, 3.069809e-001, -1.041551e+000, 
3873746783.0413, 3.071102e-001, -1.041488e+000, 
3873813108.8751, 3.072876e-001, -1.041444e+000, 
3873879434.7089, 3.074309e-001, -1.041383e+000, 
3873945760.5427, 3.076770e-001, -1.041270e+000, 
3874012086.3765, 3.078680e-001, -1.041175e+000, 
3874078412.2103, 3.080561e-001, -1.041052e+000, 
3874144738.0441, 3.082007e-001, -1.041027e+000, 
3874211063.8779, 3.083813e-001, -1.040915e+000, 
3874277389.7117, 3.084897e-001, -1.040727e+000, 
3874343715.5455, 3.083683e-001, -1.040536e+000, 
3874410041.3793, 3.082754e-001, -1.040483e+000, 
3874476367.2131, 3.082040e-001, -1.040354e+000, 
3874542693.0469, 3.081650e-001, -1.040131e+000, 
3874609018.8807, 3.080313e-001, -1.040100e+000, 
3874675344.7145, 3.080023e-001, -1.039938e+000, 
3874741670.5483, 3.078350e-001, -1.039920e+000, 
3874807996.3821, 3.077787e-001, -1.039829e+000, 
3874874322.2159, 3.077752e-001, -1.039766e+000, 
3874940648.0497, 3.076719e-001, -1.039616e+000, 
3875006973.8835, 3.076106e-001, -1.039615e+000, 
3875073299.7174, 3.074437e-001, -1.039518e+000, 
3875139625.5512, 3.074325e-001, -1.039527e+000, 
3875205951.385, 3.074321e-001, -1.039494e+000, 
3875272277.2188, 3.074064e-001, -1.039548e+000, 
3875338603.0526, 3.074633e-001, -1.039619e+000, 
3875404928.8864, 3.076110e-001, -1.039703e+000, 
3875471254.7202, 3.076774e-001, -1.039821e+000, 
3875537580.554, 3.077307e-001, -1.040011e+000, 
3875603906.3878, 3.078704e-001, -1.040135e+000, 
3875670232.2216, 3.080333e-001, -1.040281e+000, 
3875736558.0554, 3.081076e-001, -1.040402e+000, 
3875802883.8892, 3.082044e-001, -1.040629e+000, 
3875869209.723, 3.082790e-001, -1.040779e+000, 
3875935535.5568, 3.084619e-001, -1.040959e+000, 
3876001861.3906, 3.086279e-001, -1.041185e+000, 
3876068187.2244, 3.087861e-001, -1.041364e+000, 
3876134513.0582, 3.088978e-001, -1.041618e+000, 
3876200838.892, 3.090252e-001, -1.041848e+000, 
3876267164.7258, 3.090728e-001, -1.042159e+000, 
3876333490.5596, 3.087745e-001, -1.042640e+000, 
3876399816.3934, 3.085005e-001, -1.043140e+000, 
3876466142.2272, 3.082910e-001, -1.043604e+000, 
3876532468.0611, 3.080352e-001, -1.043924e+000, 
3876598793.8949, 3.078077e-001, -1.044281e+000, 
3876665119.7287, 3.076384e-001, -1.044587e+000, 
3876731445.5625, 3.074440e-001, -1.044855e+000, 
3876797771.3963, 3.072758e-001, -1.045043e+000, 
3876864097.2301, 3.071900e-001, -1.045151e+000, 
3876930423.0639, 3.071520e-001, -1.045280e+000, 
3876996748.8977, 3.071024e-001, -1.045306e+000, 
3877063074.7315, 3.070570e-001, -1.045346e+000, 
3877129400.5653, 3.071437e-001, -1.045314e+000, 
3877195726.3991, 3.071603e-001, -1.045267e+000, 
3877262052.2329, 3.073741e-001, -1.044919e+000, 
3877328378.0667, 3.080630e-001, -1.044194e+000, 
3877394703.9005, 3.086027e-001, -1.043493e+000, 
3877461029.7343, 3.092120e-001, -1.042870e+000, 
3877527355.5681, 3.096564e-001, -1.042305e+000, 
3877593681.4019, 3.100787e-001, -1.041780e+000, 
3877660007.2357, 3.104498e-001, -1.041178e+000, 
3877726333.0695, 3.108634e-001, -1.040764e+000, 
3877792658.9033, 3.111865e-001, -1.040279e+000, 
3877858984.7371, 3.113753e-001, -1.040001e+000, 
3877925310.5709, 3.116648e-001, -1.039632e+000, 
3877991636.4047, 3.118005e-001, -1.039295e+000, 
3878057962.2386, 3.119536e-001, -1.039160e+000, 
3878124288.0724, 3.120589e-001, -1.038958e+000, 
3878190613.9062, 3.120891e-001, -1.038934e+000, 
3878256939.74, 3.120589e-001, -1.039121e+000, 
3878323265.5738, 3.116765e-001, -1.040054e+000, 
3878389591.4076, 3.113785e-001, -1.040947e+000, 
3878455917.2414, 3.110572e-001, -1.041850e+000, 
3878522243.0752, 3.108053e-001, -1.042611e+000, 
3878588568.909, 3.104098e-001, -1.043382e+000, 
3878654894.7428, 3.102099e-001, -1.044036e+000, 
3878721220.5766, 3.098876e-001, -1.044708e+000, 
3878787546.4104, 3.096327e-001, -1.045282e+000, 
3878853872.2442, 3.094568e-001, -1.045764e+000, 
3878920198.078, 3.092446e-001, -1.046249e+000, 
3878986523.9118, 3.090082e-001, -1.046627e+000, 
3879052849.7456, 3.088386e-001, -1.047045e+000, 
3879119175.5794, 3.086728e-001, -1.047319e+000, 
3879185501.4132, 3.085339e-001, -1.047565e+000, 
3879251827.247, 3.083697e-001, -1.047658e+000, 
3879318153.0808, 3.080319e-001, -1.047438e+000, 
3879384478.9146, 3.077457e-001, -1.047247e+000, 
3879450804.7484, 3.074056e-001, -1.047046e+000, 
3879517130.5822, 3.071243e-001, -1.046815e+000, 
3879583456.4161, 3.068339e-001, -1.046570e+000, 
3879649782.2499, 3.065646e-001, -1.046403e+000, 
3879716108.0837, 3.063044e-001, -1.046229e+000, 
3879782433.9175, 3.061167e-001, -1.045965e+000, 
3879848759.7513, 3.059447e-001, -1.045867e+000, 
3879915085.5851, 3.057505e-001, -1.045668e+000, 
3879981411.4189, 3.056390e-001, -1.045538e+000, 
3880047737.2527, 3.054791e-001, -1.045310e+000, 
3880114063.0865, 3.052897e-001, -1.045222e+000, 
3880180388.9203, 3.052485e-001, -1.045084e+000, 
3880246714.7541, 3.051732e-001, -1.044993e+000, 
3880313040.5879, 3.055840e-001, -1.045021e+000, 
3880379366.4217, 3.058681e-001, -1.045063e+000, 
3880445692.2555, 3.062763e-001, -1.045081e+000, 
3880512018.0893, 3.065360e-001, -1.045099e+000, 
3880578343.9231, 3.068684e-001, -1.045216e+000, 
3880644669.7569, 3.070745e-001, -1.045267e+000, 
3880710995.5907, 3.073933e-001, -1.045443e+000, 
3880777321.4245, 3.076302e-001, -1.045488e+000, 
3880843647.2583, 3.078970e-001, -1.045570e+000, 
3880909973.0921, 3.081010e-001, -1.045699e+000, 
3880976298.9259, 3.082685e-001, -1.045798e+000, 
3881042624.7598, 3.085156e-001, -1.045900e+000, 
3881108950.5936, 3.086868e-001, -1.046109e+000, 
3881175276.4274, 3.088468e-001, -1.046198e+000, 
3881241602.2612, 3.090043e-001, -1.046374e+000, 
3881307928.095, 3.087152e-001, -1.046425e+000, 
3881374253.9288, 3.085264e-001, -1.046525e+000, 
3881440579.7626, 3.083253e-001, -1.046558e+000, 
3881506905.5964, 3.080340e-001, -1.046687e+000, 
3881573231.4302, 3.078468e-001, -1.046759e+000, 
3881639557.264, 3.075995e-001, -1.046886e+000, 
3881705883.0978, 3.073750e-001, -1.046954e+000, 
3881772208.9316, 3.071702e-001, -1.047136e+000, 
3881838534.7654, 3.069485e-001, -1.047211e+000, 
3881904860.5992, 3.067066e-001, -1.047297e+000, 
3881971186.433, 3.064750e-001, -1.047425e+000, 
3882037512.2668, 3.062072e-001, -1.047514e+000, 
3882103838.1006, 3.059794e-001, -1.047655e+000, 
3882170163.9344, 3.057484e-001, -1.047735e+000, 
3882236489.7682, 3.055003e-001, -1.047902e+000, 
3882302815.602, 3.052097e-001, -1.048154e+000, 
3882369141.4358, 3.049434e-001, -1.048410e+000, 
3882435467.2696, 3.047140e-001, -1.048649e+000, 
3882501793.1034, 3.044656e-001, -1.048853e+000, 
3882568118.9373, 3.041485e-001, -1.048999e+000, 
3882634444.7711, 3.039371e-001, -1.049142e+000, 
3882700770.6049, 3.037978e-001, -1.049269e+000, 
3882767096.4387, 3.035457e-001, -1.049364e+000, 
3882833422.2725, 3.033777e-001, -1.049411e+000, 
3882899748.1063, 3.032015e-001, -1.049448e+000, 
3882966073.9401, 3.030496e-001, -1.049470e+000, 
3883032399.7739, 3.029284e-001, -1.049433e+000, 
3883098725.6077, 3.027838e-001, -1.049370e+000, 
3883165051.4415, 3.027163e-001, -1.049308e+000, 
3883231377.2753, 3.025685e-001, -1.049222e+000, 
3883297703.1091, 3.025691e-001, -1.048848e+000, 
3883364028.9429, 3.026413e-001, -1.048491e+000, 
3883430354.7767, 3.027083e-001, -1.048227e+000, 
3883496680.6105, 3.027155e-001, -1.047941e+000, 
3883563006.4443, 3.027259e-001, -1.047673e+000, 
3883629332.2781, 3.027264e-001, -1.047448e+000, 
3883695658.1119, 3.027840e-001, -1.047261e+000, 
3883761983.9457, 3.028114e-001, -1.047140e+000, 
3883828309.7795, 3.029782e-001, -1.046972e+000, 
3883894635.6133, 3.029220e-001, -1.046871e+000, 
3883960961.4471, 3.030111e-001, -1.046819e+000, 
3884027287.2809, 3.030892e-001, -1.046793e+000, 
3884093613.1148, 3.030742e-001, -1.046748e+000, 
3884159938.9486, 3.031690e-001, -1.046811e+000, 
3884226264.7824, 3.032361e-001, -1.046837e+000, 
3884292590.6162, 3.034089e-001, -1.047302e+000, 
3884358916.45, 3.036673e-001, -1.047936e+000, 
3884425242.2838, 3.037575e-001, -1.048508e+000, 
3884491568.1176, 3.039455e-001, -1.049035e+000, 
3884557893.9514, 3.041009e-001, -1.049602e+000, 
3884624219.7852, 3.042337e-001, -1.050060e+000, 
3884690545.619, 3.043603e-001, -1.050562e+000, 
3884756871.4528, 3.044524e-001, -1.050912e+000, 
3884823197.2866, 3.045254e-001, -1.051375e+000, 
3884889523.1204, 3.045425e-001, -1.051753e+000, 
3884955848.9542, 3.046027e-001, -1.052140e+000, 
3885022174.788, 3.046623e-001, -1.052349e+000, 
3885088500.6218, 3.046915e-001, -1.052676e+000, 
3885154826.4556, 3.046468e-001, -1.052997e+000, 
3885221152.2894, 3.046722e-001, -1.053221e+000, 
3885287478.1232, 3.045041e-001, -1.053243e+000, 
3885353803.957, 3.043316e-001, -1.053110e+000, 
3885420129.7908, 3.041632e-001, -1.053084e+000, 
3885486455.6246, 3.039343e-001, -1.052950e+000, 
3885552781.4585, 3.038764e-001, -1.052906e+000, 
3885619107.2923, 3.037051e-001, -1.052852e+000, 
3885685433.1261, 3.035481e-001, -1.052746e+000, 
3885751758.9599, 3.034884e-001, -1.052737e+000, 
3885818084.7937, 3.033482e-001, -1.052643e+000, 
3885884410.6275, 3.032068e-001, -1.052631e+000, 
3885950736.4613, 3.031106e-001, -1.052540e+000, 
3886017062.2951, 3.031412e-001, -1.052535e+000, 
3886083388.1289, 3.029772e-001, -1.052548e+000, 
3886149713.9627, 3.029193e-001, -1.052503e+000, 
3886216039.7965, 3.028307e-001, -1.052457e+000, 
3886282365.6303, 3.030736e-001, -1.052386e+000, 
3886348691.4641, 3.034671e-001, -1.052255e+000, 
3886415017.2979, 3.037563e-001, -1.052134e+000, 
3886481343.1317, 3.041085e-001, -1.052025e+000, 
3886547668.9655, 3.043904e-001, -1.051873e+000, 
3886613994.7993, 3.047101e-001, -1.051753e+000, 
3886680320.6331, 3.049619e-001, -1.051671e+000, 
3886746646.4669, 3.052058e-001, -1.051594e+000, 
3886812972.3007, 3.054577e-001, -1.051542e+000, 
3886879298.1345, 3.056214e-001, -1.051483e+000, 
3886945623.9683, 3.058248e-001, -1.051419e+000, 
3887011949.8021, 3.059771e-001, -1.051370e+000, 
3887078275.636, 3.061226e-001, -1.051315e+000, 
3887144601.4698, 3.062053e-001, -1.051334e+000, 
3887210927.3036, 3.063160e-001, -1.051283e+000, 
3887277253.1374, 3.062751e-001, -1.051472e+000, 
3887343578.9712, 3.060314e-001, -1.051747e+000, 
3887409904.805, 3.058293e-001, -1.052054e+000, 
3887476230.6388, 3.057024e-001, -1.052325e+000, 
3887542556.4726, 3.055170e-001, -1.052603e+000, 
3887608882.3064, 3.053504e-001, -1.052880e+000, 
3887675208.1402, 3.051901e-001, -1.053059e+000, 
3887741533.974, 3.050682e-001, -1.053321e+000, 
3887807859.8078, 3.048458e-001, -1.053563e+000, 
3887874185.6416, 3.047955e-001, -1.053835e+000, 
3887940511.4754, 3.046187e-001, -1.053973e+000, 
3888006837.3092, 3.045314e-001, -1.054207e+000, 
3888073163.143, 3.044098e-001, -1.054386e+000, 
3888139488.9768, 3.043567e-001, -1.054582e+000, 
3888205814.8106, 3.042640e-001, -1.054792e+000, 
3888272140.6444, 3.043563e-001, -1.054909e+000, 
3888338466.4782, 3.045958e-001, -1.055064e+000, 
3888404792.312, 3.049622e-001, -1.055181e+000, 
3888471118.1458, 3.052611e-001, -1.055319e+000, 
3888537443.9796, 3.055337e-001, -1.055370e+000, 
3888603769.8135, 3.058131e-001, -1.055437e+000, 
3888670095.6473, 3.060777e-001, -1.055476e+000, 
3888736421.4811, 3.063785e-001, -1.055512e+000, 
3888802747.3149, 3.066093e-001, -1.055501e+000, 
3888869073.1487, 3.068588e-001, -1.055542e+000, 
3888935398.9825, 3.070297e-001, -1.055511e+000, 
3889001724.8163, 3.073160e-001, -1.055377e+000, 
3889068050.6501, 3.074738e-001, -1.055367e+000, 
3889134376.4839, 3.076436e-001, -1.055297e+000, 
3889200702.3177, 3.078214e-001, -1.055220e+000, 
3889267028.1515, 3.080865e-001, -1.054979e+000, 
3889333353.9853, 3.084260e-001, -1.054577e+000, 
3889399679.8191, 3.087242e-001, -1.054214e+000, 
3889466005.6529, 3.090394e-001, -1.053825e+000, 
3889532331.4867, 3.093266e-001, -1.053484e+000, 
3889598657.3205, 3.096494e-001, -1.053112e+000, 
3889664983.1543, 3.098606e-001, -1.052824e+000, 
3889731308.9881, 3.100767e-001, -1.052542e+000, 
3889797634.8219, 3.101978e-001, -1.052209e+000, 
3889863960.6557, 3.103909e-001, -1.051956e+000, 
3889930286.4895, 3.105590e-001, -1.051703e+000, 
3889996612.3233, 3.106558e-001, -1.051511e+000, 
3890062938.1572, 3.107626e-001, -1.051288e+000, 
3890129263.991, 3.108859e-001, -1.051096e+000, 
3890195589.8248, 3.109007e-001, -1.050912e+000, 
3890261915.6586, 3.108901e-001, -1.050793e+000, 
3890328241.4924, 3.105060e-001, -1.050835e+000, 
3890394567.3262, 3.101029e-001, -1.050821e+000, 
3890460893.16, 3.098336e-001, -1.050870e+000, 
3890527218.9938, 3.094778e-001, -1.050914e+000, 
3890593544.8276, 3.091812e-001, -1.050969e+000, 
3890659870.6614, 3.088040e-001, -1.051031e+000, 
3890726196.4952, 3.085148e-001, -1.051089e+000, 
3890792522.329, 3.081651e-001, -1.051171e+000, 
3890858848.1628, 3.078462e-001, -1.051243e+000, 
3890925173.9966, 3.074871e-001, -1.051309e+000, 
3890991499.8304, 3.071670e-001, -1.051415e+000, 
3891057825.6642, 3.068859e-001, -1.051469e+000, 
3891124151.498, 3.065444e-001, -1.051640e+000, 
3891190477.3318, 3.062657e-001, -1.051728e+000, 
3891256803.1656, 3.060219e-001, -1.051886e+000, 
3891323128.9994, 3.060359e-001, -1.052373e+000, 
3891389454.8332, 3.060180e-001, -1.052801e+000, 
3891455780.667, 3.059507e-001, -1.053206e+000, 
3891522106.5008, 3.059932e-001, -1.053579e+000, 
3891588432.3347, 3.059188e-001, -1.053920e+000, 
3891654758.1685, 3.058788e-001, -1.054324e+000, 
3891721084.0023, 3.058098e-001, -1.054596e+000, 
3891787409.8361, 3.057573e-001, -1.054885e+000, 
3891853735.6699, 3.057297e-001, -1.055160e+000, 
3891920061.5037, 3.055982e-001, -1.055410e+000, 
3891986387.3375, 3.055165e-001, -1.055635e+000, 
3892052713.1713, 3.053581e-001, -1.055892e+000, 
3892119039.0051, 3.052285e-001, -1.056039e+000, 
3892185364.8389, 3.051262e-001, -1.056224e+000, 
3892251690.6727, 3.049649e-001, -1.056322e+000, 
3892318016.5065, 3.049215e-001, -1.056139e+000, 
3892384342.3403, 3.049790e-001, -1.055940e+000, 
3892450668.1741, 3.048839e-001, -1.055769e+000, 
3892516994.0079, 3.048472e-001, -1.055568e+000, 
3892583319.8417, 3.048006e-001, -1.055395e+000, 
3892649645.6755, 3.047553e-001, -1.055263e+000, 
3892715971.5093, 3.046574e-001, -1.055093e+000, 
3892782297.3431, 3.045530e-001, -1.054877e+000, 
3892848623.1769, 3.044768e-001, -1.054818e+000, 
3892914949.0107, 3.043825e-001, -1.054644e+000, 
3892981274.8445, 3.042478e-001, -1.054507e+000, 
3893047600.6783, 3.041828e-001, -1.054319e+000, 
3893113926.5122, 3.039988e-001, -1.054248e+000, 
3893180252.346, 3.038850e-001, -1.054084e+000, 
3893246578.1798, 3.037631e-001, -1.054069e+000, 
3893312904.0136, 3.037601e-001, -1.053954e+000, 
3893379229.8474, 3.037244e-001, -1.053810e+000, 
3893445555.6812, 3.036745e-001, -1.053724e+000, 
3893511881.515, 3.036441e-001, -1.053636e+000, 
3893578207.3488, 3.036635e-001, -1.053609e+000, 
3893644533.1826, 3.036360e-001, -1.053476e+000, 
3893710859.0164, 3.036061e-001, -1.053397e+000, 
3893777184.8502, 3.035606e-001, -1.053314e+000, 
3893843510.684, 3.035428e-001, -1.053184e+000, 
3893909836.5178, 3.034714e-001, -1.053066e+000, 
3893976162.3516, 3.034229e-001, -1.052970e+000, 
3894042488.1854, 3.033826e-001, -1.052800e+000, 
3894108814.0192, 3.033535e-001, -1.052739e+000, 
3894175139.853, 3.033078e-001, -1.052591e+000, 
3894241465.6868, 3.032384e-001, -1.052443e+000, 
3894307791.5206, 3.036415e-001, -1.052038e+000, 
3894374117.3544, 3.041655e-001, -1.051686e+000, 
3894440443.1882, 3.045606e-001, -1.051386e+000, 
3894506769.022, 3.049569e-001, -1.051112e+000, 
3894573094.8559, 3.053916e-001, -1.050830e+000, 
3894639420.6897, 3.057449e-001, -1.050575e+000, 
3894705746.5235, 3.061587e-001, -1.050354e+000, 
3894772072.3573, 3.065282e-001, -1.050222e+000, 
3894838398.1911, 3.068997e-001, -1.050069e+000, 
3894904724.0249, 3.072118e-001, -1.049988e+000, 
3894971049.8587, 3.075551e-001, -1.049912e+000, 
3895037375.6925, 3.078480e-001, -1.049841e+000, 
3895103701.5263, 3.081759e-001, -1.049846e+000, 
3895170027.3601, 3.084264e-001, -1.049864e+000, 
3895236353.1939, 3.087561e-001, -1.049925e+000, 
3895302679.0277, 3.086195e-001, -1.050287e+000, 
3895369004.8615, 3.084552e-001, -1.050705e+000, 
3895435330.6953, 3.082772e-001, -1.051090e+000, 
3895501656.5291, 3.081681e-001, -1.051413e+000, 
3895567982.3629, 3.080152e-001, -1.051829e+000, 
3895634308.1967, 3.078076e-001, -1.052150e+000, 
3895700634.0305, 3.076782e-001, -1.052513e+000, 
3895766959.8643, 3.075594e-001, -1.052755e+000, 
3895833285.6981, 3.074057e-001, -1.053050e+000, 
3895899611.5319, 3.072359e-001, -1.053316e+000, 
3895965937.3657, 3.071498e-001, -1.053593e+000, 
3896032263.1995, 3.069727e-001, -1.053819e+000, 
3896098589.0334, 3.068711e-001, -1.054067e+000, 
3896164914.8672, 3.067001e-001, -1.054277e+000, 
3896231240.701, 3.065424e-001, -1.054469e+000, 
3896297566.5348, 3.065197e-001, -1.054745e+000, 
3896363892.3686, 3.064617e-001, -1.055015e+000, 
3896430218.2024, 3.063882e-001, -1.055279e+000, 
3896496544.0362, 3.063724e-001, -1.055470e+000, 
3896562869.87, 3.063337e-001, -1.055704e+000, 
3896629195.7038, 3.062648e-001, -1.055844e+000, 
3896695521.5376, 3.061838e-001, -1.055982e+000, 
3896761847.3714, 3.060771e-001, -1.056089e+000, 
3896828173.2052, 3.059765e-001, -1.056137e+000, 
3896894499.039, 3.058347e-001, -1.056236e+000, 
3896960824.8728, 3.056817e-001, -1.056221e+000, 
3897027150.7066, 3.056072e-001, -1.056248e+000, 
