"S22 POLAR"
"Frequency (Hz)","U","U",
3870563143.0187, 3.093989e-001, -1.039495e+000, 
3870629468.8525, 3.091710e-001, -1.039804e+000, 
3870695794.6863, 3.089452e-001, -1.040166e+000, 
3870762120.5201, 3.086775e-001, -1.040397e+000, 
3870828446.3539, 3.083384e-001, -1.040680e+000, 
3870894772.1877, 3.080944e-001, -1.040883e+000, 
3870961098.0215, 3.078777e-001, -1.041095e+000, 
3871027423.8553, 3.076255e-001, -1.041233e+000, 
3871093749.6891, 3.074083e-001, -1.041298e+000, 
3871160075.5229, 3.072361e-001, -1.041428e+000, 
3871226401.3567, 3.069549e-001, -1.041471e+000, 
3871292727.1905, 3.071720e-001, -1.041270e+000, 
3871359053.0243, 3.074037e-001, -1.041014e+000, 
3871425378.8581, 3.076749e-001, -1.040775e+000, 
3871491704.6919, 3.079068e-001, -1.040624e+000, 
3871558030.5257, 3.080532e-001, -1.040445e+000, 
3871624356.3595, 3.083368e-001, -1.040171e+000, 
3871690682.1933, 3.085159e-001, -1.040103e+000, 
3871757008.0271, 3.087890e-001, -1.039915e+000, 
3871823333.8609, 3.090044e-001, -1.039760e+000, 
3871889659.6947, 3.092423e-001, -1.039584e+000, 
3871955985.5285, 3.095098e-001, -1.039523e+000, 
3872022311.3624, 3.097645e-001, -1.039428e+000, 
3872088637.1962, 3.099938e-001, -1.039322e+000, 
3872154963.03, 3.101646e-001, -1.039398e+000, 
3872221288.8638, 3.104216e-001, -1.039264e+000, 
3872287614.6976, 3.102801e-001, -1.039535e+000, 
3872353940.5314, 3.098995e-001, -1.039920e+000, 
3872420266.3652, 3.095707e-001, -1.040191e+000, 
3872486592.199, 3.093095e-001, -1.040482e+000, 
3872552918.0328, 3.089091e-001, -1.040860e+000, 
3872619243.8666, 3.086892e-001, -1.041140e+000, 
3872685569.7004, 3.083943e-001, -1.041318e+000, 
3872751895.5342, 3.081146e-001, -1.041592e+000, 
3872818221.368, 3.078727e-001, -1.041847e+000, 
3872884547.2018, 3.076757e-001, -1.042062e+000, 
3872950873.0356, 3.074495e-001, -1.042254e+000, 
3873017198.8694, 3.072533e-001, -1.042382e+000, 
3873083524.7032, 3.070700e-001, -1.042522e+000, 
3873149850.537, 3.069054e-001, -1.042623e+000, 
3873216176.3708, 3.067587e-001, -1.042762e+000, 
3873282502.2046, 3.067589e-001, -1.042821e+000, 
3873348828.0384, 3.068559e-001, -1.042910e+000, 
3873415153.8722, 3.070462e-001, -1.042831e+000, 
3873481479.706, 3.071823e-001, -1.042935e+000, 
3873547805.5399, 3.074057e-001, -1.042848e+000, 
3873614131.3737, 3.075228e-001, -1.042823e+000, 
3873680457.2075, 3.076449e-001, -1.042806e+000, 
3873746783.0413, 3.078237e-001, -1.042794e+000, 
3873813108.8751, 3.080210e-001, -1.042793e+000, 
3873879434.7089, 3.081828e-001, -1.042674e+000, 
3873945760.5427, 3.083877e-001, -1.042589e+000, 
3874012086.3765, 3.085416e-001, -1.042427e+000, 
3874078412.2103, 3.087040e-001, -1.042432e+000, 
3874144738.0441, 3.090570e-001, -1.042293e+000, 
3874211063.8779, 3.091739e-001, -1.042166e+000, 
3874277389.7117, 3.091937e-001, -1.042027e+000, 
3874343715.5455, 3.091154e-001, -1.041909e+000, 
3874410041.3793, 3.090216e-001, -1.041730e+000, 
3874476367.2131, 3.088725e-001, -1.041599e+000, 
3874542693.0469, 3.088601e-001, -1.041436e+000, 
3874609018.8807, 3.087656e-001, -1.041374e+000, 
3874675344.7145, 3.086883e-001, -1.041268e+000, 
3874741670.5483, 3.085745e-001, -1.041164e+000, 
3874807996.3821, 3.085451e-001, -1.041054e+000, 
3874874322.2159, 3.084335e-001, -1.040989e+000, 
3874940648.0497, 3.084256e-001, -1.040884e+000, 
3875006973.8835, 3.082479e-001, -1.040880e+000, 
3875073299.7174, 3.082153e-001, -1.040798e+000, 
3875139625.5512, 3.081679e-001, -1.040817e+000, 
3875205951.385, 3.080694e-001, -1.040712e+000, 
3875272277.2188, 3.080703e-001, -1.040768e+000, 
3875338603.0526, 3.081791e-001, -1.040858e+000, 
3875404928.8864, 3.082868e-001, -1.040999e+000, 
3875471254.7202, 3.083868e-001, -1.041094e+000, 
3875537580.554, 3.084856e-001, -1.041243e+000, 
3875603906.3878, 3.085688e-001, -1.041429e+000, 
3875670232.2216, 3.086589e-001, -1.041527e+000, 
3875736558.0554, 3.087659e-001, -1.041710e+000, 
3875802883.8892, 3.089158e-001, -1.041870e+000, 
3875869209.723, 3.090929e-001, -1.042026e+000, 
3875935535.5568, 3.091489e-001, -1.042193e+000, 
3876001861.3906, 3.093166e-001, -1.042410e+000, 
3876068187.2244, 3.094250e-001, -1.042655e+000, 
3876134513.0582, 3.096414e-001, -1.042837e+000, 
3876200838.892, 3.097739e-001, -1.043095e+000, 
3876267164.7258, 3.097382e-001, -1.043458e+000, 
3876333490.5596, 3.094737e-001, -1.043962e+000, 
3876399816.3934, 3.092154e-001, -1.044434e+000, 
3876466142.2272, 3.089654e-001, -1.044816e+000, 
3876532468.0611, 3.086898e-001, -1.045215e+000, 
3876598793.8949, 3.085115e-001, -1.045558e+000, 
3876665119.7287, 3.083119e-001, -1.045831e+000, 
3876731445.5625, 3.081616e-001, -1.046069e+000, 
3876797771.3963, 3.080169e-001, -1.046270e+000, 
3876864097.2301, 3.079934e-001, -1.046421e+000, 
3876930423.0639, 3.078960e-001, -1.046538e+000, 
3876996748.8977, 3.077659e-001, -1.046593e+000, 
3877063074.7315, 3.078297e-001, -1.046640e+000, 
3877129400.5653, 3.078250e-001, -1.046555e+000, 
3877195726.3991, 3.079477e-001, -1.046481e+000, 
3877262052.2329, 3.081968e-001, -1.046256e+000, 
3877328378.0667, 3.088304e-001, -1.045456e+000, 
3877394703.9005, 3.093832e-001, -1.044768e+000, 
3877461029.7343, 3.098836e-001, -1.044168e+000, 
3877527355.5681, 3.103908e-001, -1.043505e+000, 
3877593681.4019, 3.107711e-001, -1.042999e+000, 
3877660007.2357, 3.111939e-001, -1.042531e+000, 
3877726333.0695, 3.115761e-001, -1.042014e+000, 
3877792658.9033, 3.118510e-001, -1.041580e+000, 
3877858984.7371, 3.121395e-001, -1.041157e+000, 
3877925310.5709, 3.123508e-001, -1.040896e+000, 
3877991636.4047, 3.125029e-001, -1.040631e+000, 
3878057962.2386, 3.126772e-001, -1.040377e+000, 
3878124288.0724, 3.127766e-001, -1.040244e+000, 
3878190613.9062, 3.128084e-001, -1.040176e+000, 
3878256939.74, 3.127941e-001, -1.040444e+000, 
3878323265.5738, 3.124207e-001, -1.041326e+000, 
3878389591.4076, 3.120945e-001, -1.042271e+000, 
3878455917.2414, 3.118162e-001, -1.043082e+000, 
3878522243.0752, 3.114606e-001, -1.043873e+000, 
3878588568.909, 3.112077e-001, -1.044616e+000, 
3878654894.7428, 3.108937e-001, -1.045304e+000, 
3878721220.5766, 3.106736e-001, -1.045983e+000, 
3878787546.4104, 3.104130e-001, -1.046593e+000, 
3878853872.2442, 3.101929e-001, -1.047074e+000, 
3878920198.078, 3.099844e-001, -1.047515e+000, 
3878986523.9118, 3.097388e-001, -1.047920e+000, 
3879052849.7456, 3.095767e-001, -1.048298e+000, 
3879119175.5794, 3.093954e-001, -1.048558e+000, 
3879185501.4132, 3.093030e-001, -1.048852e+000, 
3879251827.247, 3.090850e-001, -1.048970e+000, 
3879318153.0808, 3.087695e-001, -1.048759e+000, 
3879384478.9146, 3.083835e-001, -1.048544e+000, 
3879450804.7484, 3.080608e-001, -1.048338e+000, 
3879517130.5822, 3.078123e-001, -1.048066e+000, 
3879583456.4161, 3.075731e-001, -1.047914e+000, 
3879649782.2499, 3.072803e-001, -1.047698e+000, 
3879716108.0837, 3.070991e-001, -1.047531e+000, 
3879782433.9175, 3.068260e-001, -1.047317e+000, 
3879848759.7513, 3.066582e-001, -1.047128e+000, 
3879915085.5851, 3.065244e-001, -1.046938e+000, 
3879981411.4189, 3.064125e-001, -1.046811e+000, 
3880047737.2527, 3.062394e-001, -1.046632e+000, 
3880114063.0865, 3.060935e-001, -1.046493e+000, 
3880180388.9203, 3.059652e-001, -1.046331e+000, 
3880246714.7541, 3.059434e-001, -1.046259e+000, 
3880313040.5879, 3.063059e-001, -1.046285e+000, 
3880379366.4217, 3.066829e-001, -1.046325e+000, 
3880445692.2555, 3.069929e-001, -1.046353e+000, 
3880512018.0893, 3.072908e-001, -1.046434e+000, 
3880578343.9231, 3.075387e-001, -1.046535e+000, 
3880644669.7569, 3.078784e-001, -1.046586e+000, 
3880710995.5907, 3.081193e-001, -1.046618e+000, 
3880777321.4245, 3.083639e-001, -1.046742e+000, 
3880843647.2583, 3.086158e-001, -1.046846e+000, 
3880909973.0921, 3.088817e-001, -1.046964e+000, 
3880976298.9259, 3.091003e-001, -1.047115e+000, 
3881042624.7598, 3.092358e-001, -1.047234e+000, 
3881108950.5936, 3.094277e-001, -1.047395e+000, 
3881175276.4274, 3.096241e-001, -1.047516e+000, 
3881241602.2612, 3.097039e-001, -1.047660e+000, 
3881307928.095, 3.094572e-001, -1.047718e+000, 
3881374253.9288, 3.092867e-001, -1.047820e+000, 
3881440579.7626, 3.090809e-001, -1.047882e+000, 
3881506905.5964, 3.087660e-001, -1.047979e+000, 
3881573231.4302, 3.085793e-001, -1.048113e+000, 
3881639557.264, 3.083515e-001, -1.048236e+000, 
3881705883.0978, 3.081012e-001, -1.048303e+000, 
3881772208.9316, 3.079015e-001, -1.048375e+000, 
3881838534.7654, 3.076451e-001, -1.048503e+000, 
3881904860.5992, 3.074619e-001, -1.048579e+000, 
3881971186.433, 3.072295e-001, -1.048704e+000, 
3882037512.2668, 3.069384e-001, -1.048829e+000, 
3882103838.1006, 3.066879e-001, -1.048963e+000, 
3882170163.9344, 3.064822e-001, -1.049072e+000, 
3882236489.7682, 3.062336e-001, -1.049181e+000, 
3882302815.602, 3.058803e-001, -1.049479e+000, 
3882369141.4358, 3.056477e-001, -1.049699e+000, 
3882435467.2696, 3.053858e-001, -1.049927e+000, 
3882501793.1034, 3.051434e-001, -1.050142e+000, 
3882568118.9373, 3.049109e-001, -1.050290e+000, 
3882634444.7711, 3.047224e-001, -1.050463e+000, 
3882700770.6049, 3.045126e-001, -1.050550e+000, 
3882767096.4387, 3.042977e-001, -1.050651e+000, 
3882833422.2725, 3.041206e-001, -1.050676e+000, 
3882899748.1063, 3.039852e-001, -1.050712e+000, 
3882966073.9401, 3.038331e-001, -1.050674e+000, 
3883032399.7739, 3.036584e-001, -1.050696e+000, 
3883098725.6077, 3.035625e-001, -1.050662e+000, 
3883165051.4415, 3.034505e-001, -1.050588e+000, 
3883231377.2753, 3.033539e-001, -1.050516e+000, 
3883297703.1091, 3.032922e-001, -1.050199e+000, 
3883364028.9429, 3.033560e-001, -1.049837e+000, 
3883430354.7767, 3.033952e-001, -1.049492e+000, 
3883496680.6105, 3.033790e-001, -1.049289e+000, 
3883563006.4443, 3.034450e-001, -1.048950e+000, 
3883629332.2781, 3.035116e-001, -1.048737e+000, 
3883695658.1119, 3.035086e-001, -1.048539e+000, 
3883761983.9457, 3.035695e-001, -1.048406e+000, 
3883828309.7795, 3.036663e-001, -1.048222e+000, 
3883894635.6133, 3.036258e-001, -1.048172e+000, 
3883960961.4471, 3.037129e-001, -1.048080e+000, 
3884027287.2809, 3.038261e-001, -1.048005e+000, 
3884093613.1148, 3.038607e-001, -1.048027e+000, 
3884159938.9486, 3.039245e-001, -1.048096e+000, 
3884226264.7824, 3.040137e-001, -1.048126e+000, 
3884292590.6162, 3.041601e-001, -1.048591e+000, 
3884358916.45, 3.044081e-001, -1.049243e+000, 
3884425242.2838, 3.045631e-001, -1.049830e+000, 
3884491568.1176, 3.047108e-001, -1.050334e+000, 
3884557893.9514, 3.048119e-001, -1.050844e+000, 
3884624219.7852, 3.049647e-001, -1.051332e+000, 
3884690545.619, 3.051251e-001, -1.051780e+000, 
3884756871.4528, 3.051816e-001, -1.052228e+000, 
3884823197.2866, 3.052880e-001, -1.052654e+000, 
3884889523.1204, 3.053527e-001, -1.053026e+000, 
3884955848.9542, 3.054081e-001, -1.053311e+000, 
3885022174.788, 3.054431e-001, -1.053667e+000, 
3885088500.6218, 3.054764e-001, -1.053951e+000, 
3885154826.4556, 3.054168e-001, -1.054254e+000, 
3885221152.2894, 3.053746e-001, -1.054549e+000, 
3885287478.1232, 3.052651e-001, -1.054510e+000, 
3885353803.957, 3.050800e-001, -1.054397e+000, 
3885420129.7908, 3.049272e-001, -1.054348e+000, 
3885486455.6246, 3.047403e-001, -1.054285e+000, 
3885552781.4585, 3.045865e-001, -1.054166e+000, 
3885619107.2923, 3.044960e-001, -1.054081e+000, 
3885685433.1261, 3.043564e-001, -1.054066e+000, 
3885751758.9599, 3.041947e-001, -1.054018e+000, 
3885818084.7937, 3.040907e-001, -1.053978e+000, 
3885884410.6275, 3.039582e-001, -1.053917e+000, 
3885950736.4613, 3.038702e-001, -1.053888e+000, 
3886017062.2951, 3.038353e-001, -1.053831e+000, 
3886083388.1289, 3.037435e-001, -1.053758e+000, 
3886149713.9627, 3.036161e-001, -1.053770e+000, 
3886216039.7965, 3.035676e-001, -1.053824e+000, 
3886282365.6303, 3.038023e-001, -1.053712e+000, 
3886348691.4641, 3.042035e-001, -1.053533e+000, 
3886415017.2979, 3.045205e-001, -1.053356e+000, 
3886481343.1317, 3.048497e-001, -1.053276e+000, 
3886547668.9655, 3.051432e-001, -1.053166e+000, 
3886613994.7993, 3.054202e-001, -1.053023e+000, 
3886680320.6331, 3.057312e-001, -1.052985e+000, 
3886746646.4669, 3.059467e-001, -1.052903e+000, 
3886812972.3007, 3.061605e-001, -1.052772e+000, 
3886879298.1345, 3.063768e-001, -1.052744e+000, 
3886945623.9683, 3.065622e-001, -1.052661e+000, 
3887011949.8021, 3.067412e-001, -1.052620e+000, 
3887078275.636, 3.068487e-001, -1.052597e+000, 
3887144601.4698, 3.069673e-001, -1.052626e+000, 
3887210927.3036, 3.070658e-001, -1.052587e+000, 
3887277253.1374, 3.070085e-001, -1.052743e+000, 
3887343578.9712, 3.067402e-001, -1.053005e+000, 
3887409904.805, 3.065834e-001, -1.053313e+000, 
3887476230.6388, 3.064490e-001, -1.053600e+000, 
3887542556.4726, 3.063160e-001, -1.053851e+000, 
3887608882.3064, 3.060577e-001, -1.054099e+000, 
3887675208.1402, 3.059705e-001, -1.054352e+000, 
3887741533.974, 3.057784e-001, -1.054625e+000, 
3887807859.8078, 3.056633e-001, -1.054867e+000, 
3887874185.6416, 3.055414e-001, -1.055122e+000, 
3887940511.4754, 3.054323e-001, -1.055295e+000, 
3888006837.3092, 3.052752e-001, -1.055468e+000, 
3888073163.143, 3.051766e-001, -1.055698e+000, 
3888139488.9768, 3.050626e-001, -1.055906e+000, 
3888205814.8106, 3.050219e-001, -1.056068e+000, 
3888272140.6444, 3.050355e-001, -1.056220e+000, 
3888338466.4782, 3.054497e-001, -1.056362e+000, 
3888404792.312, 3.056930e-001, -1.056496e+000, 
3888471118.1458, 3.060020e-001, -1.056579e+000, 
3888537443.9796, 3.062683e-001, -1.056665e+000, 
3888603769.8135, 3.065767e-001, -1.056703e+000, 
3888670095.6473, 3.067771e-001, -1.056730e+000, 
3888736421.4811, 3.071124e-001, -1.056818e+000, 
3888802747.3149, 3.073579e-001, -1.056799e+000, 
3888869073.1487, 3.075989e-001, -1.056818e+000, 
3888935398.9825, 3.078540e-001, -1.056757e+000, 
3889001724.8163, 3.080539e-001, -1.056731e+000, 
3889068050.6501, 3.082291e-001, -1.056686e+000, 
3889134376.4839, 3.084048e-001, -1.056617e+000, 
3889200702.3177, 3.085952e-001, -1.056502e+000, 
3889267028.1515, 3.088445e-001, -1.056253e+000, 
3889333353.9853, 3.091986e-001, -1.055855e+000, 
3889399679.8191, 3.094915e-001, -1.055459e+000, 
3889466005.6529, 3.098350e-001, -1.055122e+000, 
3889532331.4867, 3.100753e-001, -1.054738e+000, 
3889598657.3205, 3.104059e-001, -1.054385e+000, 
3889664983.1543, 3.106112e-001, -1.054084e+000, 
3889731308.9881, 3.108400e-001, -1.053794e+000, 
3889797634.8219, 3.110129e-001, -1.053526e+000, 
3889863960.6557, 3.111822e-001, -1.053222e+000, 
3889930286.4895, 3.113026e-001, -1.052972e+000, 
3889996612.3233, 3.114527e-001, -1.052744e+000, 
3890062938.1572, 3.115849e-001, -1.052562e+000, 
3890129263.991, 3.116660e-001, -1.052389e+000, 
3890195589.8248, 3.116823e-001, -1.052164e+000, 
3890261915.6586, 3.116574e-001, -1.052084e+000, 
3890328241.4924, 3.113003e-001, -1.052057e+000, 
3890394567.3262, 3.109381e-001, -1.052102e+000, 
3890460893.16, 3.106192e-001, -1.052126e+000, 
3890527218.9938, 3.102426e-001, -1.052208e+000, 
3890593544.8276, 3.099104e-001, -1.052220e+000, 
3890659870.6614, 3.095739e-001, -1.052266e+000, 
3890726196.4952, 3.092200e-001, -1.052343e+000, 
3890792522.329, 3.088800e-001, -1.052425e+000, 
3890858848.1628, 3.086436e-001, -1.052482e+000, 
3890925173.9966, 3.083026e-001, -1.052544e+000, 
3890991499.8304, 3.079382e-001, -1.052649e+000, 
3891057825.6642, 3.076993e-001, -1.052775e+000, 
3891124151.498, 3.073143e-001, -1.052848e+000, 
3891190477.3318, 3.070235e-001, -1.052968e+000, 
3891256803.1656, 3.068230e-001, -1.053185e+000, 
3891323128.9994, 3.068073e-001, -1.053650e+000, 
3891389454.8332, 3.068150e-001, -1.054052e+000, 
3891455780.667, 3.067932e-001, -1.054504e+000, 
3891522106.5008, 3.067389e-001, -1.054837e+000, 
3891588432.3347, 3.067454e-001, -1.055232e+000, 
3891654758.1685, 3.066912e-001, -1.055546e+000, 
3891721084.0023, 3.066218e-001, -1.055869e+000, 
3891787409.8361, 3.065398e-001, -1.056167e+000, 
3891853735.6699, 3.064494e-001, -1.056421e+000, 
3891920061.5037, 3.063843e-001, -1.056714e+000, 
3891986387.3375, 3.062868e-001, -1.056933e+000, 
3892052713.1713, 3.061211e-001, -1.057170e+000, 
3892119039.0051, 3.060586e-001, -1.057341e+000, 
3892185364.8389, 3.058937e-001, -1.057470e+000, 
3892251690.6727, 3.057800e-001, -1.057622e+000, 
3892318016.5065, 3.057711e-001, -1.057395e+000, 
3892384342.3403, 3.056687e-001, -1.057207e+000, 
3892450668.1741, 3.056851e-001, -1.057045e+000, 
3892516994.0079, 3.056292e-001, -1.056839e+000, 
3892583319.8417, 3.055825e-001, -1.056671e+000, 
3892649645.6755, 3.054996e-001, -1.056530e+000, 
3892715971.5093, 3.053985e-001, -1.056382e+000, 
3892782297.3431, 3.053381e-001, -1.056226e+000, 
3892848623.1769, 3.052217e-001, -1.056088e+000, 
3892914949.0107, 3.051401e-001, -1.055907e+000, 
3892981274.8445, 3.050110e-001, -1.055782e+000, 
3893047600.6783, 3.049352e-001, -1.055627e+000, 
3893113926.5122, 3.047591e-001, -1.055515e+000, 
3893180252.346, 3.046518e-001, -1.055439e+000, 
3893246578.1798, 3.045563e-001, -1.055311e+000, 
3893312904.0136, 3.044834e-001, -1.055244e+000, 
3893379229.8474, 3.044107e-001, -1.055157e+000, 
3893445555.6812, 3.044806e-001, -1.055042e+000, 
3893511881.515, 3.044222e-001, -1.054910e+000, 
3893578207.3488, 3.044110e-001, -1.054860e+000, 
3893644533.1826, 3.043777e-001, -1.054788e+000, 
3893710859.0164, 3.043247e-001, -1.054668e+000, 
3893777184.8502, 3.042878e-001, -1.054561e+000, 
3893843510.684, 3.042926e-001, -1.054457e+000, 
3893909836.5178, 3.042040e-001, -1.054362e+000, 
3893976162.3516, 3.041854e-001, -1.054223e+000, 
3894042488.1854, 3.041535e-001, -1.054105e+000, 
3894108814.0192, 3.041673e-001, -1.053978e+000, 
3894175139.853, 3.040182e-001, -1.053870e+000, 
3894241465.6868, 3.039728e-001, -1.053732e+000, 
3894307791.5206, 3.044816e-001, -1.053331e+000, 
3894374117.3544, 3.048956e-001, -1.053005e+000, 
3894440443.1882, 3.053875e-001, -1.052681e+000, 
3894506769.022, 3.057849e-001, -1.052371e+000, 
3894573094.8559, 3.061858e-001, -1.052108e+000, 
3894639420.6897, 3.065237e-001, -1.051857e+000, 
3894705746.5235, 3.069231e-001, -1.051671e+000, 
3894772072.3573, 3.072810e-001, -1.051480e+000, 
3894838398.1911, 3.076346e-001, -1.051328e+000, 
3894904724.0249, 3.080349e-001, -1.051221e+000, 
3894971049.8587, 3.083461e-001, -1.051117e+000, 
3895037375.6925, 3.086810e-001, -1.051094e+000, 
3895103701.5263, 3.089886e-001, -1.051094e+000, 
3895170027.3601, 3.092882e-001, -1.051116e+000, 
3895236353.1939, 3.095883e-001, -1.051173e+000, 
3895302679.0277, 3.094079e-001, -1.051560e+000, 
3895369004.8615, 3.092116e-001, -1.051955e+000, 
3895435330.6953, 3.090976e-001, -1.052325e+000, 
3895501656.5291, 3.089187e-001, -1.052736e+000, 
3895567982.3629, 3.087725e-001, -1.053063e+000, 
3895634308.1967, 3.086164e-001, -1.053409e+000, 
3895700634.0305, 3.084919e-001, -1.053711e+000, 
3895766959.8643, 3.083208e-001, -1.054013e+000, 
3895833285.6981, 3.081594e-001, -1.054349e+000, 
3895899611.5319, 3.080480e-001, -1.054580e+000, 
3895965937.3657, 3.079048e-001, -1.054837e+000, 
3896032263.1995, 3.077726e-001, -1.055079e+000, 
3896098589.0334, 3.076403e-001, -1.055308e+000, 
3896164914.8672, 3.075138e-001, -1.055539e+000, 
3896231240.701, 3.073739e-001, -1.055690e+000, 
3896297566.5348, 3.072784e-001, -1.055973e+000, 
3896363892.3686, 3.071970e-001, -1.056283e+000, 
3896430218.2024, 3.071885e-001, -1.056536e+000, 
3896496544.0362, 3.071986e-001, -1.056757e+000, 
3896562869.87, 3.070760e-001, -1.056919e+000, 
3896629195.7038, 3.069843e-001, -1.057093e+000, 
3896695521.5376, 3.069528e-001, -1.057257e+000, 
3896761847.3714, 3.068460e-001, -1.057370e+000, 
3896828173.2052, 3.067780e-001, -1.057441e+000, 
3896894499.039, 3.066277e-001, -1.057495e+000, 
3896960824.8728, 3.064708e-001, -1.057521e+000, 
3897027150.7066, 3.064043e-001, -1.057463e+000, 
