"S11 POLAR"
"Frequency (Hz)","U","U",
3870563143.0187, 7.499771e-001, -6.762018e-001, 
3870629468.8525, 7.502524e-001, -6.761398e-001, 
3870695794.6863, 7.504749e-001, -6.761010e-001, 
3870762120.5201, 7.506942e-001, -6.761017e-001, 
3870828446.3539, 7.509129e-001, -6.761525e-001, 
3870894772.1877, 7.510833e-001, -6.761610e-001, 
3870961098.0215, 7.512130e-001, -6.762569e-001, 
3871027423.8553, 7.514065e-001, -6.763065e-001, 
3871093749.6891, 7.515429e-001, -6.763228e-001, 
3871160075.5229, 7.516033e-001, -6.763774e-001, 
3871226401.3567, 7.516928e-001, -6.764660e-001, 
3871292727.1905, 7.516856e-001, -6.765881e-001, 
3871359053.0243, 7.516868e-001, -6.767118e-001, 
3871425378.8581, 7.516404e-001, -6.768074e-001, 
3871491704.6919, 7.516310e-001, -6.768408e-001, 
3871558030.5257, 7.516023e-001, -6.769501e-001, 
3871624356.3595, 7.515537e-001, -6.770180e-001, 
3871690682.1933, 7.514981e-001, -6.770364e-001, 
3871757008.0271, 7.514565e-001, -6.770776e-001, 
3871823333.8609, 7.514051e-001, -6.771016e-001, 
3871889659.6947, 7.513205e-001, -6.771267e-001, 
3871955985.5285, 7.512952e-001, -6.771066e-001, 
3872022311.3624, 7.512249e-001, -6.770681e-001, 
3872088637.1962, 7.511663e-001, -6.770542e-001, 
3872154963.03, 7.510588e-001, -6.770195e-001, 
3872221288.8638, 7.509839e-001, -6.769729e-001, 
3872287614.6976, 7.508215e-001, -6.768222e-001, 
3872353940.5314, 7.505870e-001, -6.766521e-001, 
3872420266.3652, 7.503992e-001, -6.764595e-001, 
3872486592.199, 7.502407e-001, -6.762476e-001, 
3872552918.0328, 7.500229e-001, -6.760982e-001, 
3872619243.8666, 7.499077e-001, -6.759297e-001, 
3872685569.7004, 7.497839e-001, -6.757680e-001, 
3872751895.5342, 7.496920e-001, -6.756385e-001, 
3872818221.368, 7.495868e-001, -6.755067e-001, 
3872884547.2018, 7.494808e-001, -6.753845e-001, 
3872950873.0356, 7.494240e-001, -6.752622e-001, 
3873017198.8694, 7.493495e-001, -6.751114e-001, 
3873083524.7032, 7.493054e-001, -6.750901e-001, 
3873149850.537, 7.493064e-001, -6.749978e-001, 
3873216176.3708, 7.492579e-001, -6.748384e-001, 
3873282502.2046, 7.493167e-001, -6.748527e-001, 
3873348828.0384, 7.494499e-001, -6.749649e-001, 
3873415153.8722, 7.495596e-001, -6.749811e-001, 
3873481479.706, 7.497030e-001, -6.750338e-001, 
3873547805.5399, 7.497993e-001, -6.750903e-001, 
3873614131.3737, 7.499205e-001, -6.751532e-001, 
3873680457.2075, 7.500159e-001, -6.751822e-001, 
3873746783.0413, 7.500462e-001, -6.753218e-001, 
3873813108.8751, 7.500839e-001, -6.753271e-001, 
3873879434.7089, 7.502253e-001, -6.754012e-001, 
3873945760.5427, 7.502065e-001, -6.754624e-001, 
3874012086.3765, 7.502656e-001, -6.755219e-001, 
3874078412.2103, 7.502830e-001, -6.756080e-001, 
3874144738.0441, 7.502785e-001, -6.756402e-001, 
3874211063.8779, 7.502868e-001, -6.757088e-001, 
3874277389.7117, 7.503067e-001, -6.757774e-001, 
3874343715.5455, 7.502208e-001, -6.757640e-001, 
3874410041.3793, 7.501814e-001, -6.757748e-001, 
3874476367.2131, 7.501139e-001, -6.757950e-001, 
3874542693.0469, 7.500576e-001, -6.757935e-001, 
3874609018.8807, 7.500325e-001, -6.758223e-001, 
3874675344.7145, 7.499369e-001, -6.757785e-001, 
3874741670.5483, 7.499375e-001, -6.758099e-001, 
3874807996.3821, 7.498788e-001, -6.757948e-001, 
3874874322.2159, 7.498318e-001, -6.757290e-001, 
3874940648.0497, 7.497707e-001, -6.757703e-001, 
3875006973.8835, 7.497190e-001, -6.756507e-001, 
3875073299.7174, 7.496725e-001, -6.756654e-001, 
3875139625.5512, 7.495931e-001, -6.756090e-001, 
3875205951.385, 7.495583e-001, -6.755605e-001, 
3875272277.2188, 7.495394e-001, -6.754549e-001, 
3875338603.0526, 7.495365e-001, -6.754090e-001, 
3875404928.8864, 7.494938e-001, -6.753182e-001, 
3875471254.7202, 7.494389e-001, -6.752582e-001, 
3875537580.554, 7.494639e-001, -6.751496e-001, 
3875603906.3878, 7.494009e-001, -6.751589e-001, 
3875670232.2216, 7.493546e-001, -6.750947e-001, 
3875736558.0554, 7.493626e-001, -6.750198e-001, 
3875802883.8892, 7.492535e-001, -6.750482e-001, 
3875869209.723, 7.492509e-001, -6.750147e-001, 
3875935535.5568, 7.491751e-001, -6.749698e-001, 
3876001861.3906, 7.491364e-001, -6.749567e-001, 
3876068187.2244, 7.491412e-001, -6.750125e-001, 
3876134513.0582, 7.490525e-001, -6.749776e-001, 
3876200838.892, 7.490260e-001, -6.750314e-001, 
3876267164.7258, 7.489485e-001, -6.749946e-001, 
3876333490.5596, 7.489917e-001, -6.750609e-001, 
3876399816.3934, 7.489554e-001, -6.750143e-001, 
3876466142.2272, 7.489801e-001, -6.750201e-001, 
3876532468.0611, 7.489749e-001, -6.749904e-001, 
3876598793.8949, 7.489138e-001, -6.749483e-001, 
3876665119.7287, 7.489263e-001, -6.749799e-001, 
3876731445.5625, 7.488856e-001, -6.749516e-001, 
3876797771.3963, 7.488749e-001, -6.749352e-001, 
3876864097.2301, 7.488637e-001, -6.749212e-001, 
3876930423.0639, 7.488011e-001, -6.749319e-001, 
3876996748.8977, 7.488359e-001, -6.748886e-001, 
3877063074.7315, 7.487838e-001, -6.748136e-001, 
3877129400.5653, 7.487364e-001, -6.748215e-001, 
3877195726.3991, 7.486783e-001, -6.747748e-001, 
3877262052.2329, 7.486163e-001, -6.747023e-001, 
3877328378.0667, 7.485586e-001, -6.745250e-001, 
3877394703.9005, 7.484094e-001, -6.744398e-001, 
3877461029.7343, 7.483805e-001, -6.743799e-001, 
3877527355.5681, 7.483259e-001, -6.742512e-001, 
3877593681.4019, 7.481771e-001, -6.741364e-001, 
3877660007.2357, 7.481309e-001, -6.740826e-001, 
3877726333.0695, 7.481088e-001, -6.739518e-001, 
3877792658.9033, 7.480634e-001, -6.739264e-001, 
3877858984.7371, 7.480287e-001, -6.738521e-001, 
3877925310.5709, 7.480352e-001, -6.738220e-001, 
3877991636.4047, 7.480066e-001, -6.737444e-001, 
3878057962.2386, 7.480056e-001, -6.737314e-001, 
3878124288.0724, 7.480850e-001, -6.736428e-001, 
3878190613.9062, 7.480408e-001, -6.736475e-001, 
3878256939.74, 7.481235e-001, -6.736431e-001, 
3878323265.5738, 7.484236e-001, -6.737242e-001, 
3878389591.4076, 7.486732e-001, -6.738485e-001, 
3878455917.2414, 7.488901e-001, -6.739889e-001, 
3878522243.0752, 7.490826e-001, -6.741175e-001, 
3878588568.909, 7.492903e-001, -6.742617e-001, 
3878654894.7428, 7.494815e-001, -6.743746e-001, 
3878721220.5766, 7.496104e-001, -6.744877e-001, 
3878787546.4104, 7.497097e-001, -6.745988e-001, 
3878853872.2442, 7.498557e-001, -6.747293e-001, 
3878920198.078, 7.499535e-001, -6.748287e-001, 
3878986523.9118, 7.500427e-001, -6.749035e-001, 
3879052849.7456, 7.500587e-001, -6.749788e-001, 
3879119175.5794, 7.501181e-001, -6.751165e-001, 
3879185501.4132, 7.500996e-001, -6.751651e-001, 
3879251827.247, 7.501194e-001, -6.752624e-001, 
3879318153.0808, 7.500294e-001, -6.750273e-001, 
3879384478.9146, 7.499922e-001, -6.748437e-001, 
3879450804.7484, 7.499029e-001, -6.747745e-001, 
3879517130.5822, 7.498378e-001, -6.746041e-001, 
3879583456.4161, 7.497382e-001, -6.744419e-001, 
3879649782.2499, 7.497389e-001, -6.743677e-001, 
3879716108.0837, 7.496361e-001, -6.741617e-001, 
3879782433.9175, 7.495919e-001, -6.741501e-001, 
3879848759.7513, 7.495489e-001, -6.740568e-001, 
3879915085.5851, 7.495252e-001, -6.739328e-001, 
3879981411.4189, 7.494757e-001, -6.738712e-001, 
3880047737.2527, 7.494295e-001, -6.737484e-001, 
3880114063.0865, 7.494308e-001, -6.737058e-001, 
3880180388.9203, 7.493666e-001, -6.736561e-001, 
3880246714.7541, 7.493082e-001, -6.736315e-001, 
3880313040.5879, 7.491338e-001, -6.736893e-001, 
3880379366.4217, 7.489949e-001, -6.738161e-001, 
3880445692.2555, 7.488755e-001, -6.738772e-001, 
3880512018.0893, 7.487459e-001, -6.739781e-001, 
3880578343.9231, 7.484882e-001, -6.741031e-001, 
3880644669.7569, 7.484112e-001, -6.742252e-001, 
3880710995.5907, 7.482470e-001, -6.743799e-001, 
3880777321.4245, 7.481080e-001, -6.744764e-001, 
3880843647.2583, 7.479632e-001, -6.746014e-001, 
3880909973.0921, 7.478892e-001, -6.747459e-001, 
3880976298.9259, 7.477725e-001, -6.748995e-001, 
3881042624.7598, 7.476851e-001, -6.750680e-001, 
3881108950.5936, 7.476096e-001, -6.752145e-001, 
3881175276.4274, 7.474902e-001, -6.754314e-001, 
3881241602.2612, 7.474140e-001, -6.755463e-001, 
3881307928.095, 7.477424e-001, -6.755600e-001, 
3881374253.9288, 7.479641e-001, -6.754763e-001, 
3881440579.7626, 7.482158e-001, -6.754465e-001, 
3881506905.5964, 7.484754e-001, -6.754312e-001, 
3881573231.4302, 7.487034e-001, -6.753998e-001, 
3881639557.264, 7.489458e-001, -6.753706e-001, 
3881705883.0978, 7.491337e-001, -6.752552e-001, 
3881772208.9316, 7.493326e-001, -6.752299e-001, 
3881838534.7654, 7.495715e-001, -6.751887e-001, 
3881904860.5992, 7.498188e-001, -6.751196e-001, 
3881971186.433, 7.499555e-001, -6.750504e-001, 
3882037512.2668, 7.501162e-001, -6.750060e-001, 
3882103838.1006, 7.503240e-001, -6.749325e-001, 
3882170163.9344, 7.504491e-001, -6.748723e-001, 
3882236489.7682, 7.506438e-001, -6.747953e-001, 
3882302815.602, 7.505424e-001, -6.746975e-001, 
3882369141.4358, 7.504368e-001, -6.746318e-001, 
3882435467.2696, 7.503343e-001, -6.746006e-001, 
3882501793.1034, 7.502036e-001, -6.745111e-001, 
3882568118.9373, 7.501186e-001, -6.744871e-001, 
3882634444.7711, 7.500220e-001, -6.744868e-001, 
3882700770.6049, 7.499396e-001, -6.744945e-001, 
3882767096.4387, 7.498328e-001, -6.744895e-001, 
3882833422.2725, 7.497287e-001, -6.745003e-001, 
3882899748.1063, 7.496600e-001, -6.745129e-001, 
3882966073.9401, 7.495794e-001, -6.745806e-001, 
3883032399.7739, 7.494541e-001, -6.746078e-001, 
3883098725.6077, 7.493978e-001, -6.746299e-001, 
3883165051.4415, 7.493383e-001, -6.746972e-001, 
3883231377.2753, 7.492622e-001, -6.747815e-001, 
3883297703.1091, 7.493320e-001, -6.748499e-001, 
3883364028.9429, 7.493660e-001, -6.748786e-001, 
3883430354.7767, 7.494745e-001, -6.749779e-001, 
3883496680.6105, 7.495565e-001, -6.750329e-001, 
3883563006.4443, 7.496204e-001, -6.751281e-001, 
3883629332.2781, 7.496685e-001, -6.750966e-001, 
3883695658.1119, 7.497224e-001, -6.751775e-001, 
3883761983.9457, 7.498023e-001, -6.752083e-001, 
3883828309.7795, 7.498341e-001, -6.752521e-001, 
3883894635.6133, 7.498960e-001, -6.753265e-001, 
3883960961.4471, 7.499605e-001, -6.753507e-001, 
3884027287.2809, 7.499608e-001, -6.753677e-001, 
3884093613.1148, 7.500146e-001, -6.754491e-001, 
3884159938.9486, 7.500327e-001, -6.754729e-001, 
3884226264.7824, 7.500947e-001, -6.754933e-001, 
3884292590.6162, 7.500665e-001, -6.755167e-001, 
3884358916.45, 7.500911e-001, -6.755983e-001, 
3884425242.2838, 7.501666e-001, -6.756205e-001, 
3884491568.1176, 7.500851e-001, -6.757139e-001, 
3884557893.9514, 7.500794e-001, -6.757041e-001, 
3884624219.7852, 7.500684e-001, -6.757492e-001, 
3884690545.619, 7.500703e-001, -6.757274e-001, 
3884756871.4528, 7.500039e-001, -6.757853e-001, 
3884823197.2866, 7.500215e-001, -6.757951e-001, 
3884889523.1204, 7.500201e-001, -6.757347e-001, 
3884955848.9542, 7.499471e-001, -6.757650e-001, 
3885022174.788, 7.499058e-001, -6.756926e-001, 
3885088500.6218, 7.498458e-001, -6.757003e-001, 
3885154826.4556, 7.498009e-001, -6.756139e-001, 
3885221152.2894, 7.497488e-001, -6.755579e-001, 
3885287478.1232, 7.497798e-001, -6.754682e-001, 
3885353803.957, 7.497498e-001, -6.754178e-001, 
3885420129.7908, 7.498186e-001, -6.752570e-001, 
3885486455.6246, 7.498185e-001, -6.751819e-001, 
3885552781.4585, 7.498224e-001, -6.750773e-001, 
3885619107.2923, 7.498788e-001, -6.749666e-001, 
3885685433.1261, 7.498603e-001, -6.748550e-001, 
3885751758.9599, 7.498820e-001, -6.748024e-001, 
3885818084.7937, 7.498718e-001, -6.746309e-001, 
3885884410.6275, 7.499039e-001, -6.745698e-001, 
3885950736.4613, 7.498806e-001, -6.744929e-001, 
3886017062.2951, 7.498984e-001, -6.744223e-001, 
3886083388.1289, 7.498761e-001, -6.742848e-001, 
3886149713.9627, 7.498791e-001, -6.742262e-001, 
3886216039.7965, 7.498146e-001, -6.741478e-001, 
3886282365.6303, 7.497755e-001, -6.739757e-001, 
3886348691.4641, 7.496804e-001, -6.738035e-001, 
3886415017.2979, 7.496442e-001, -6.736785e-001, 
3886481343.1317, 7.495227e-001, -6.735181e-001, 
3886547668.9655, 7.494423e-001, -6.733639e-001, 
3886613994.7993, 7.493107e-001, -6.733245e-001, 
3886680320.6331, 7.492509e-001, -6.731666e-001, 
3886746646.4669, 7.491738e-001, -6.730928e-001, 
3886812972.3007, 7.490867e-001, -6.730232e-001, 
3886879298.1345, 7.489564e-001, -6.730078e-001, 
3886945623.9683, 7.489420e-001, -6.729680e-001, 
3887011949.8021, 7.488559e-001, -6.729326e-001, 
3887078275.636, 7.487954e-001, -6.728979e-001, 
3887144601.4698, 7.488188e-001, -6.729295e-001, 
3887210927.3036, 7.487521e-001, -6.729199e-001, 
3887277253.1374, 7.487955e-001, -6.731780e-001, 
3887343578.9712, 7.489426e-001, -6.735687e-001, 
3887409904.805, 7.490657e-001, -6.739479e-001, 
3887476230.6388, 7.491630e-001, -6.743268e-001, 
3887542556.4726, 7.492280e-001, -6.746930e-001, 
3887608882.3064, 7.492095e-001, -6.749703e-001, 
3887675208.1402, 7.492466e-001, -6.752954e-001, 
3887741533.974, 7.491943e-001, -6.755900e-001, 
3887807859.8078, 7.491565e-001, -6.758657e-001, 
3887874185.6416, 7.490407e-001, -6.760594e-001, 
3887940511.4754, 7.489454e-001, -6.762971e-001, 
3888006837.3092, 7.488775e-001, -6.764758e-001, 
3888073163.143, 7.487599e-001, -6.766217e-001, 
3888139488.9768, 7.485501e-001, -6.767578e-001, 
3888205814.8106, 7.484083e-001, -6.768388e-001, 
3888272140.6444, 7.483611e-001, -6.767237e-001, 
3888338466.4782, 7.484893e-001, -6.765857e-001, 
3888404792.312, 7.486254e-001, -6.764246e-001, 
3888471118.1458, 7.487576e-001, -6.762673e-001, 
3888537443.9796, 7.489412e-001, -6.760833e-001, 
3888603769.8135, 7.490289e-001, -6.759374e-001, 
3888670095.6473, 7.491376e-001, -6.758224e-001, 
3888736421.4811, 7.492753e-001, -6.756111e-001, 
3888802747.3149, 7.494398e-001, -6.754327e-001, 
3888869073.1487, 7.495014e-001, -6.753208e-001, 
3888935398.9825, 7.497013e-001, -6.751314e-001, 
3889001724.8163, 7.498240e-001, -6.749763e-001, 
3889068050.6501, 7.499760e-001, -6.748783e-001, 
3889134376.4839, 7.500954e-001, -6.746553e-001, 
3889200702.3177, 7.502761e-001, -6.745375e-001, 
3889267028.1515, 7.502189e-001, -6.743696e-001, 
3889333353.9853, 7.499604e-001, -6.740620e-001, 
3889399679.8191, 7.497170e-001, -6.738098e-001, 
3889466005.6529, 7.494622e-001, -6.735880e-001, 
3889532331.4867, 7.492409e-001, -6.733999e-001, 
3889598657.3205, 7.489685e-001, -6.732265e-001, 
3889664983.1543, 7.487634e-001, -6.730672e-001, 
3889731308.9881, 7.485457e-001, -6.729896e-001, 
3889797634.8219, 7.483044e-001, -6.729221e-001, 
3889863960.6557, 7.480994e-001, -6.728572e-001, 
3889930286.4895, 7.478682e-001, -6.728128e-001, 
3889996612.3233, 7.476688e-001, -6.728202e-001, 
3890062938.1572, 7.474723e-001, -6.729130e-001, 
3890129263.991, 7.472734e-001, -6.729793e-001, 
3890195589.8248, 7.471072e-001, -6.730458e-001, 
3890261915.6586, 7.470829e-001, -6.733073e-001, 
3890328241.4924, 7.472874e-001, -6.737055e-001, 
3890394567.3262, 7.474067e-001, -6.740549e-001, 
3890460893.16, 7.475695e-001, -6.745015e-001, 
3890527218.9938, 7.476785e-001, -6.747683e-001, 
3890593544.8276, 7.477357e-001, -6.751359e-001, 
3890659870.6614, 7.478735e-001, -6.753929e-001, 
3890726196.4952, 7.478371e-001, -6.756732e-001, 
3890792522.329, 7.479174e-001, -6.758908e-001, 
3890858848.1628, 7.479281e-001, -6.761093e-001, 
3890925173.9966, 7.479272e-001, -6.763070e-001, 
3890991499.8304, 7.479447e-001, -6.764929e-001, 
3891057825.6642, 7.479017e-001, -6.765925e-001, 
3891124151.498, 7.478833e-001, -6.767038e-001, 
3891190477.3318, 7.478314e-001, -6.767503e-001, 
3891256803.1656, 7.477916e-001, -6.768644e-001, 
3891323128.9994, 7.478414e-001, -6.769419e-001, 
3891389454.8332, 7.479267e-001, -6.769996e-001, 
3891455780.667, 7.479648e-001, -6.770850e-001, 
3891522106.5008, 7.480624e-001, -6.771608e-001, 
3891588432.3347, 7.481046e-001, -6.771756e-001, 
3891654758.1685, 7.481567e-001, -6.773058e-001, 
3891721084.0023, 7.482238e-001, -6.773412e-001, 
3891787409.8361, 7.482988e-001, -6.774261e-001, 
3891853735.6699, 7.483792e-001, -6.774740e-001, 
3891920061.5037, 7.484175e-001, -6.775522e-001, 
3891986387.3375, 7.484885e-001, -6.776079e-001, 
3892052713.1713, 7.484899e-001, -6.776884e-001, 
3892119039.0051, 7.485940e-001, -6.776986e-001, 
3892185364.8389, 7.486143e-001, -6.777604e-001, 
3892251690.6727, 7.487232e-001, -6.778120e-001, 
3892318016.5065, 7.489324e-001, -6.773912e-001, 
3892384342.3403, 7.490467e-001, -6.770363e-001, 
3892450668.1741, 7.491795e-001, -6.766846e-001, 
3892516994.0079, 7.493183e-001, -6.763761e-001, 
3892583319.8417, 7.494752e-001, -6.760286e-001, 
3892649645.6755, 7.495506e-001, -6.757556e-001, 
3892715971.5093, 7.496727e-001, -6.754781e-001, 
3892782297.3431, 7.497374e-001, -6.751786e-001, 
3892848623.1769, 7.498120e-001, -6.749652e-001, 
3892914949.0107, 7.498470e-001, -6.747059e-001, 
3892981274.8445, 7.498653e-001, -6.744259e-001, 
3893047600.6783, 7.499015e-001, -6.742523e-001, 
3893113926.5122, 7.499202e-001, -6.740079e-001, 
3893180252.346, 7.499399e-001, -6.738715e-001, 
3893246578.1798, 7.499658e-001, -6.737800e-001, 
3893312904.0136, 7.498127e-001, -6.738752e-001, 
3893379229.8474, 7.497132e-001, -6.740783e-001, 
3893445555.6812, 7.496446e-001, -6.741840e-001, 
3893511881.515, 7.495467e-001, -6.743048e-001, 
3893578207.3488, 7.494147e-001, -6.743739e-001, 
3893644533.1826, 7.492793e-001, -6.745215e-001, 
3893710859.0164, 7.491750e-001, -6.746228e-001, 
3893777184.8502, 7.490475e-001, -6.746825e-001, 
3893843510.684, 7.489178e-001, -6.747957e-001, 
3893909836.5178, 7.488866e-001, -6.748083e-001, 
3893976162.3516, 7.486974e-001, -6.748758e-001, 
3894042488.1854, 7.485790e-001, -6.748668e-001, 
3894108814.0192, 7.484913e-001, -6.748900e-001, 
3894175139.853, 7.484124e-001, -6.749548e-001, 
3894241465.6868, 7.482743e-001, -6.748850e-001, 
3894307791.5206, 7.482278e-001, -6.748191e-001, 
3894374117.3544, 7.481046e-001, -6.747581e-001, 
3894440443.1882, 7.480540e-001, -6.747160e-001, 
3894506769.022, 7.478911e-001, -6.746613e-001, 
3894573094.8559, 7.478039e-001, -6.746642e-001, 
3894639420.6897, 7.477430e-001, -6.746236e-001, 
3894705746.5235, 7.476153e-001, -6.746083e-001, 
3894772072.3573, 7.474966e-001, -6.746327e-001, 
3894838398.1911, 7.474186e-001, -6.746805e-001, 
3894904724.0249, 7.472938e-001, -6.746586e-001, 
3894971049.8587, 7.472091e-001, -6.747913e-001, 
3895037375.6925, 7.471144e-001, -6.747888e-001, 
3895103701.5263, 7.469844e-001, -6.748304e-001, 
3895170027.3601, 7.468688e-001, -6.749083e-001, 
3895236353.1939, 7.467766e-001, -6.750007e-001, 
3895302679.0277, 7.468116e-001, -6.751100e-001, 
3895369004.8615, 7.468187e-001, -6.752505e-001, 
3895435330.6953, 7.469203e-001, -6.754118e-001, 
3895501656.5291, 7.469746e-001, -6.755236e-001, 
3895567982.3629, 7.469744e-001, -6.756250e-001, 
3895634308.1967, 7.470283e-001, -6.756871e-001, 
3895700634.0305, 7.470844e-001, -6.758401e-001, 
3895766959.8643, 7.471008e-001, -6.758508e-001, 
3895833285.6981, 7.471711e-001, -6.759572e-001, 
3895899611.5319, 7.471858e-001, -6.760147e-001, 
3895965937.3657, 7.472472e-001, -6.760997e-001, 
3896032263.1995, 7.472656e-001, -6.761550e-001, 
3896098589.0334, 7.472824e-001, -6.761919e-001, 
3896164914.8672, 7.473156e-001, -6.762609e-001, 
3896231240.701, 7.473387e-001, -6.763029e-001, 
3896297566.5348, 7.474831e-001, -6.761817e-001, 
3896363892.3686, 7.475564e-001, -6.760727e-001, 
3896430218.2024, 7.476567e-001, -6.759591e-001, 
3896496544.0362, 7.477323e-001, -6.758780e-001, 
3896562869.87, 7.477441e-001, -6.757816e-001, 
3896629195.7038, 7.477700e-001, -6.756981e-001, 
3896695521.5376, 7.477434e-001, -6.756023e-001, 
3896761847.3714, 7.476820e-001, -6.755634e-001, 
3896828173.2052, 7.476362e-001, -6.755568e-001, 
3896894499.039, 7.475476e-001, -6.756212e-001, 
3896960824.8728, 7.474450e-001, -6.756321e-001, 
3897027150.7066, 7.473526e-001, -6.756875e-001, 
