"S22 POLAR"
"Frequency (Hz)","U","U",
3870563143.0187, 3.077373e-001, -1.042045e+000, 
3870629468.8525, 3.075324e-001, -1.042319e+000, 
3870695794.6863, 3.072718e-001, -1.042666e+000, 
3870762120.5201, 3.070050e-001, -1.042925e+000, 
3870828446.3539, 3.066838e-001, -1.043164e+000, 
3870894772.1877, 3.064618e-001, -1.043421e+000, 
3870961098.0215, 3.061736e-001, -1.043591e+000, 
3871027423.8553, 3.059220e-001, -1.043682e+000, 
3871093749.6891, 3.057235e-001, -1.043762e+000, 
3871160075.5229, 3.055061e-001, -1.043874e+000, 
3871226401.3567, 3.052792e-001, -1.043981e+000, 
3871292727.1905, 3.054764e-001, -1.043772e+000, 
3871359053.0243, 3.057146e-001, -1.043530e+000, 
3871425378.8581, 3.059584e-001, -1.043309e+000, 
3871491704.6919, 3.061361e-001, -1.043063e+000, 
3871558030.5257, 3.063781e-001, -1.042889e+000, 
3871624356.3595, 3.066495e-001, -1.042685e+000, 
3871690682.1933, 3.068197e-001, -1.042617e+000, 
3871757008.0271, 3.070940e-001, -1.042434e+000, 
3871823333.8609, 3.072942e-001, -1.042215e+000, 
3871889659.6947, 3.076077e-001, -1.042097e+000, 
3871955985.5285, 3.078406e-001, -1.041996e+000, 
3872022311.3624, 3.080645e-001, -1.041932e+000, 
3872088637.1962, 3.082710e-001, -1.041842e+000, 
3872154963.03, 3.085229e-001, -1.041826e+000, 
3872221288.8638, 3.087187e-001, -1.041793e+000, 
3872287614.6976, 3.086064e-001, -1.041933e+000, 
3872353940.5314, 3.082587e-001, -1.042327e+000, 
3872420266.3652, 3.079525e-001, -1.042703e+000, 
3872486592.199, 3.076567e-001, -1.042974e+000, 
3872552918.0328, 3.072765e-001, -1.043271e+000, 
3872619243.8666, 3.070779e-001, -1.043574e+000, 
3872685569.7004, 3.067287e-001, -1.043829e+000, 
3872751895.5342, 3.065107e-001, -1.044093e+000, 
3872818221.368, 3.062611e-001, -1.044270e+000, 
3872884547.2018, 3.059896e-001, -1.044480e+000, 
3872950873.0356, 3.058196e-001, -1.044644e+000, 
3873017198.8694, 3.056001e-001, -1.044802e+000, 
3873083524.7032, 3.053837e-001, -1.045004e+000, 
3873149850.537, 3.052400e-001, -1.045136e+000, 
3873216176.3708, 3.050672e-001, -1.045277e+000, 
3873282502.2046, 3.051512e-001, -1.045266e+000, 
3873348828.0384, 3.053162e-001, -1.045319e+000, 
3873415153.8722, 3.053867e-001, -1.045352e+000, 
3873481479.706, 3.055623e-001, -1.045370e+000, 
3873547805.5399, 3.056359e-001, -1.045308e+000, 
3873614131.3737, 3.058344e-001, -1.045346e+000, 
3873680457.2075, 3.060102e-001, -1.045300e+000, 
3873746783.0413, 3.062052e-001, -1.045298e+000, 
3873813108.8751, 3.063065e-001, -1.045207e+000, 
3873879434.7089, 3.065132e-001, -1.045185e+000, 
3873945760.5427, 3.067417e-001, -1.045058e+000, 
3874012086.3765, 3.069442e-001, -1.044995e+000, 
3874078412.2103, 3.070529e-001, -1.044848e+000, 
3874144738.0441, 3.072729e-001, -1.044766e+000, 
3874211063.8779, 3.074365e-001, -1.044697e+000, 
3874277389.7117, 3.075353e-001, -1.044449e+000, 
3874343715.5455, 3.074608e-001, -1.044370e+000, 
3874410041.3793, 3.073983e-001, -1.044217e+000, 
3874476367.2131, 3.072705e-001, -1.044084e+000, 
3874542693.0469, 3.071933e-001, -1.044000e+000, 
3874609018.8807, 3.070628e-001, -1.043839e+000, 
3874675344.7145, 3.070002e-001, -1.043739e+000, 
3874741670.5483, 3.069231e-001, -1.043681e+000, 
3874807996.3821, 3.068356e-001, -1.043539e+000, 
3874874322.2159, 3.067998e-001, -1.043493e+000, 
3874940648.0497, 3.067129e-001, -1.043409e+000, 
3875006973.8835, 3.066850e-001, -1.043296e+000, 
3875073299.7174, 3.064809e-001, -1.043308e+000, 
3875139625.5512, 3.065132e-001, -1.043254e+000, 
3875205951.385, 3.064086e-001, -1.043177e+000, 
3875272277.2188, 3.063667e-001, -1.043262e+000, 
3875338603.0526, 3.064676e-001, -1.043395e+000, 
3875404928.8864, 3.065727e-001, -1.043514e+000, 
3875471254.7202, 3.066809e-001, -1.043619e+000, 
3875537580.554, 3.067992e-001, -1.043754e+000, 
3875603906.3878, 3.068539e-001, -1.043816e+000, 
3875670232.2216, 3.070184e-001, -1.044007e+000, 
3875736558.0554, 3.071481e-001, -1.044146e+000, 
3875802883.8892, 3.072661e-001, -1.044342e+000, 
3875869209.723, 3.074077e-001, -1.044540e+000, 
3875935535.5568, 3.075182e-001, -1.044750e+000, 
3876001861.3906, 3.075852e-001, -1.044951e+000, 
3876068187.2244, 3.077797e-001, -1.045156e+000, 
3876134513.0582, 3.079772e-001, -1.045358e+000, 
3876200838.892, 3.080853e-001, -1.045579e+000, 
3876267164.7258, 3.080639e-001, -1.045936e+000, 
3876333490.5596, 3.077796e-001, -1.046419e+000, 
3876399816.3934, 3.074883e-001, -1.046954e+000, 
3876466142.2272, 3.072239e-001, -1.047369e+000, 
3876532468.0611, 3.070729e-001, -1.047755e+000, 
3876598793.8949, 3.068196e-001, -1.048034e+000, 
3876665119.7287, 3.066382e-001, -1.048378e+000, 
3876731445.5625, 3.064533e-001, -1.048620e+000, 
3876797771.3963, 3.064071e-001, -1.048820e+000, 
3876864097.2301, 3.062221e-001, -1.048903e+000, 
3876930423.0639, 3.061511e-001, -1.049086e+000, 
3876996748.8977, 3.061482e-001, -1.049164e+000, 
3877063074.7315, 3.061209e-001, -1.049114e+000, 
3877129400.5653, 3.061414e-001, -1.049050e+000, 
3877195726.3991, 3.061922e-001, -1.049051e+000, 
3877262052.2329, 3.064462e-001, -1.048782e+000, 
3877328378.0667, 3.071781e-001, -1.048000e+000, 
3877394703.9005, 3.076586e-001, -1.047295e+000, 
3877461029.7343, 3.081605e-001, -1.046669e+000, 
3877527355.5681, 3.087585e-001, -1.046028e+000, 
3877593681.4019, 3.091176e-001, -1.045535e+000, 
3877660007.2357, 3.095725e-001, -1.044966e+000, 
3877726333.0695, 3.099027e-001, -1.044482e+000, 
3877792658.9033, 3.102497e-001, -1.044029e+000, 
3877858984.7371, 3.104777e-001, -1.043702e+000, 
3877925310.5709, 3.107822e-001, -1.043356e+000, 
3877991636.4047, 3.108577e-001, -1.043164e+000, 
3878057962.2386, 3.109884e-001, -1.042892e+000, 
3878124288.0724, 3.110878e-001, -1.042752e+000, 
3878190613.9062, 3.111675e-001, -1.042672e+000, 
3878256939.74, 3.111023e-001, -1.042893e+000, 
3878323265.5738, 3.107490e-001, -1.043824e+000, 
3878389591.4076, 3.104476e-001, -1.044746e+000, 
3878455917.2414, 3.100744e-001, -1.045554e+000, 
3878522243.0752, 3.098103e-001, -1.046423e+000, 
3878588568.909, 3.094910e-001, -1.047124e+000, 
3878654894.7428, 3.092847e-001, -1.047759e+000, 
3878721220.5766, 3.090039e-001, -1.048410e+000, 
3878787546.4104, 3.086844e-001, -1.049040e+000, 
3878853872.2442, 3.085279e-001, -1.049537e+000, 
3878920198.078, 3.082765e-001, -1.050069e+000, 
3878986523.9118, 3.080611e-001, -1.050426e+000, 
3879052849.7456, 3.078700e-001, -1.050789e+000, 
3879119175.5794, 3.077227e-001, -1.051080e+000, 
3879185501.4132, 3.075879e-001, -1.051329e+000, 
3879251827.247, 3.074594e-001, -1.051464e+000, 
3879318153.0808, 3.070869e-001, -1.051285e+000, 
3879384478.9146, 3.067813e-001, -1.050952e+000, 
3879450804.7484, 3.064183e-001, -1.050821e+000, 
3879517130.5822, 3.061661e-001, -1.050558e+000, 
3879583456.4161, 3.057945e-001, -1.050373e+000, 
3879649782.2499, 3.056006e-001, -1.050165e+000, 
3879716108.0837, 3.054326e-001, -1.049950e+000, 
3879782433.9175, 3.051795e-001, -1.049781e+000, 
3879848759.7513, 3.050429e-001, -1.049612e+000, 
3879915085.5851, 3.047967e-001, -1.049393e+000, 
3879981411.4189, 3.046440e-001, -1.049240e+000, 
3880047737.2527, 3.045129e-001, -1.049106e+000, 
3880114063.0865, 3.043691e-001, -1.048921e+000, 
3880180388.9203, 3.042743e-001, -1.048813e+000, 
3880246714.7541, 3.042207e-001, -1.048759e+000, 
3880313040.5879, 3.045718e-001, -1.048699e+000, 
3880379366.4217, 3.049319e-001, -1.048799e+000, 
3880445692.2555, 3.053017e-001, -1.048837e+000, 
3880512018.0893, 3.055561e-001, -1.048929e+000, 
3880578343.9231, 3.058781e-001, -1.048993e+000, 
3880644669.7569, 3.061605e-001, -1.049062e+000, 
3880710995.5907, 3.064697e-001, -1.049142e+000, 
3880777321.4245, 3.067287e-001, -1.049246e+000, 
3880843647.2583, 3.069495e-001, -1.049328e+000, 
3880909973.0921, 3.071756e-001, -1.049450e+000, 
3880976298.9259, 3.073385e-001, -1.049543e+000, 
3881042624.7598, 3.075464e-001, -1.049717e+000, 
3881108950.5936, 3.077435e-001, -1.049844e+000, 
3881175276.4274, 3.079019e-001, -1.050020e+000, 
3881241602.2612, 3.080353e-001, -1.050144e+000, 
3881307928.095, 3.077542e-001, -1.050177e+000, 
3881374253.9288, 3.075302e-001, -1.050324e+000, 
3881440579.7626, 3.072856e-001, -1.050390e+000, 
3881506905.5964, 3.070732e-001, -1.050496e+000, 
3881573231.4302, 3.068125e-001, -1.050502e+000, 
3881639557.264, 3.066109e-001, -1.050654e+000, 
3881705883.0978, 3.063318e-001, -1.050784e+000, 
3881772208.9316, 3.061170e-001, -1.050877e+000, 
3881838534.7654, 3.059256e-001, -1.050920e+000, 
3881904860.5992, 3.056519e-001, -1.051051e+000, 
3881971186.433, 3.054217e-001, -1.051203e+000, 
3882037512.2668, 3.052365e-001, -1.051267e+000, 
3882103838.1006, 3.049409e-001, -1.051386e+000, 
3882170163.9344, 3.047570e-001, -1.051517e+000, 
3882236489.7682, 3.045129e-001, -1.051635e+000, 
3882302815.602, 3.042025e-001, -1.051917e+000, 
3882369141.4358, 3.039364e-001, -1.052220e+000, 
3882435467.2696, 3.036580e-001, -1.052380e+000, 
3882501793.1034, 3.033787e-001, -1.052649e+000, 
3882568118.9373, 3.031975e-001, -1.052787e+000, 
3882634444.7711, 3.029344e-001, -1.052876e+000, 
3882700770.6049, 3.028201e-001, -1.052997e+000, 
3882767096.4387, 3.024786e-001, -1.053066e+000, 
3882833422.2725, 3.023486e-001, -1.053128e+000, 
3882899748.1063, 3.021842e-001, -1.053175e+000, 
3882966073.9401, 3.020671e-001, -1.053141e+000, 
3883032399.7739, 3.019433e-001, -1.053134e+000, 
3883098725.6077, 3.018583e-001, -1.053082e+000, 
3883165051.4415, 3.018165e-001, -1.053037e+000, 
3883231377.2753, 3.016576e-001, -1.052980e+000, 
3883297703.1091, 3.016665e-001, -1.052620e+000, 
3883364028.9429, 3.017430e-001, -1.052221e+000, 
3883430354.7767, 3.018233e-001, -1.051943e+000, 
3883496680.6105, 3.017510e-001, -1.051680e+000, 
3883563006.4443, 3.017974e-001, -1.051365e+000, 
3883629332.2781, 3.018754e-001, -1.051159e+000, 
3883695658.1119, 3.019219e-001, -1.050976e+000, 
3883761983.9457, 3.019460e-001, -1.050825e+000, 
3883828309.7795, 3.020417e-001, -1.050658e+000, 
3883894635.6133, 3.020802e-001, -1.050534e+000, 
3883960961.4471, 3.021598e-001, -1.050433e+000, 
3884027287.2809, 3.022046e-001, -1.050417e+000, 
3884093613.1148, 3.022264e-001, -1.050436e+000, 
3884159938.9486, 3.023097e-001, -1.050471e+000, 
3884226264.7824, 3.024366e-001, -1.050488e+000, 
3884292590.6162, 3.025583e-001, -1.051038e+000, 
3884358916.45, 3.027499e-001, -1.051656e+000, 
3884425242.2838, 3.029017e-001, -1.052170e+000, 
3884491568.1176, 3.030743e-001, -1.052733e+000, 
3884557893.9514, 3.031922e-001, -1.053284e+000, 
3884624219.7852, 3.033934e-001, -1.053803e+000, 
3884690545.619, 3.034690e-001, -1.054228e+000, 
3884756871.4528, 3.035902e-001, -1.054624e+000, 
3884823197.2866, 3.036234e-001, -1.055090e+000, 
3884889523.1204, 3.036800e-001, -1.055461e+000, 
3884955848.9542, 3.037307e-001, -1.055811e+000, 
3885022174.788, 3.037592e-001, -1.056141e+000, 
3885088500.6218, 3.037870e-001, -1.056422e+000, 
3885154826.4556, 3.037384e-001, -1.056675e+000, 
3885221152.2894, 3.037701e-001, -1.056939e+000, 
3885287478.1232, 3.036143e-001, -1.056965e+000, 
3885353803.957, 3.034282e-001, -1.056867e+000, 
3885420129.7908, 3.032161e-001, -1.056756e+000, 
3885486455.6246, 3.030124e-001, -1.056720e+000, 
3885552781.4585, 3.029102e-001, -1.056652e+000, 
3885619107.2923, 3.027471e-001, -1.056581e+000, 
3885685433.1261, 3.026185e-001, -1.056528e+000, 
3885751758.9599, 3.024715e-001, -1.056471e+000, 
3885818084.7937, 3.023658e-001, -1.056391e+000, 
3885884410.6275, 3.022588e-001, -1.056374e+000, 
3885950736.4613, 3.022062e-001, -1.056321e+000, 
3886017062.2951, 3.021227e-001, -1.056264e+000, 
3886083388.1289, 3.020110e-001, -1.056240e+000, 
3886149713.9627, 3.019329e-001, -1.056196e+000, 
3886216039.7965, 3.018544e-001, -1.056256e+000, 
3886282365.6303, 3.021188e-001, -1.056125e+000, 
3886348691.4641, 3.024532e-001, -1.055947e+000, 
3886415017.2979, 3.028308e-001, -1.055871e+000, 
3886481343.1317, 3.031526e-001, -1.055746e+000, 
3886547668.9655, 3.034592e-001, -1.055588e+000, 
3886613994.7993, 3.037052e-001, -1.055535e+000, 
3886680320.6331, 3.040159e-001, -1.055423e+000, 
3886746646.4669, 3.042550e-001, -1.055329e+000, 
3886812972.3007, 3.044657e-001, -1.055297e+000, 
3886879298.1345, 3.046232e-001, -1.055228e+000, 
3886945623.9683, 3.048891e-001, -1.055131e+000, 
3887011949.8021, 3.050013e-001, -1.055137e+000, 
3887078275.636, 3.051241e-001, -1.055075e+000, 
3887144601.4698, 3.052818e-001, -1.055055e+000, 
3887210927.3036, 3.053682e-001, -1.055038e+000, 
3887277253.1374, 3.052790e-001, -1.055204e+000, 
3887343578.9712, 3.051142e-001, -1.055489e+000, 
3887409904.805, 3.048699e-001, -1.055789e+000, 
3887476230.6388, 3.047373e-001, -1.056107e+000, 
3887542556.4726, 3.045605e-001, -1.056336e+000, 
3887608882.3064, 3.043343e-001, -1.056596e+000, 
3887675208.1402, 3.042162e-001, -1.056839e+000, 
3887741533.974, 3.041391e-001, -1.057014e+000, 
3887807859.8078, 3.039549e-001, -1.057276e+000, 
3887874185.6416, 3.038114e-001, -1.057498e+000, 
3887940511.4754, 3.036855e-001, -1.057737e+000, 
3888006837.3092, 3.035835e-001, -1.057924e+000, 
3888073163.143, 3.034944e-001, -1.058137e+000, 
3888139488.9768, 3.033901e-001, -1.058329e+000, 
3888205814.8106, 3.032747e-001, -1.058521e+000, 
3888272140.6444, 3.033579e-001, -1.058647e+000, 
3888338466.4782, 3.037013e-001, -1.058796e+000, 
3888404792.312, 3.039814e-001, -1.058980e+000, 
3888471118.1458, 3.043133e-001, -1.059017e+000, 
3888537443.9796, 3.046547e-001, -1.059120e+000, 
3888603769.8135, 3.048690e-001, -1.059198e+000, 
3888670095.6473, 3.051762e-001, -1.059217e+000, 
3888736421.4811, 3.054004e-001, -1.059242e+000, 
3888802747.3149, 3.057446e-001, -1.059225e+000, 
3888869073.1487, 3.058963e-001, -1.059298e+000, 
3888935398.9825, 3.061052e-001, -1.059225e+000, 
3889001724.8163, 3.063633e-001, -1.059171e+000, 
3889068050.6501, 3.065544e-001, -1.059103e+000, 
3889134376.4839, 3.067812e-001, -1.059036e+000, 
3889200702.3177, 3.069499e-001, -1.058958e+000, 
3889267028.1515, 3.071942e-001, -1.058701e+000, 
3889333353.9853, 3.075092e-001, -1.058299e+000, 
3889399679.8191, 3.078691e-001, -1.057904e+000, 
3889466005.6529, 3.081592e-001, -1.057570e+000, 
3889532331.4867, 3.084271e-001, -1.057172e+000, 
3889598657.3205, 3.086924e-001, -1.056866e+000, 
3889664983.1543, 3.089429e-001, -1.056532e+000, 
3889731308.9881, 3.091677e-001, -1.056239e+000, 
3889797634.8219, 3.093583e-001, -1.055950e+000, 
3889863960.6557, 3.096073e-001, -1.055672e+000, 
3889930286.4895, 3.096821e-001, -1.055451e+000, 
3889996612.3233, 3.098085e-001, -1.055196e+000, 
3890062938.1572, 3.099332e-001, -1.054981e+000, 
3890129263.991, 3.099832e-001, -1.054805e+000, 
3890195589.8248, 3.101007e-001, -1.054632e+000, 
3890261915.6586, 3.100210e-001, -1.054508e+000, 
3890328241.4924, 3.096520e-001, -1.054539e+000, 
3890394567.3262, 3.093267e-001, -1.054546e+000, 
3890460893.16, 3.089700e-001, -1.054561e+000, 
3890527218.9938, 3.086195e-001, -1.054601e+000, 
3890593544.8276, 3.082528e-001, -1.054655e+000, 
3890659870.6614, 3.079008e-001, -1.054703e+000, 
3890726196.4952, 3.076795e-001, -1.054785e+000, 
3890792522.329, 3.072446e-001, -1.054859e+000, 
3890858848.1628, 3.069262e-001, -1.054938e+000, 
3890925173.9966, 3.066487e-001, -1.055004e+000, 
3890991499.8304, 3.062740e-001, -1.055076e+000, 
3891057825.6642, 3.059865e-001, -1.055170e+000, 
3891124151.498, 3.056630e-001, -1.055308e+000, 
3891190477.3318, 3.053717e-001, -1.055389e+000, 
3891256803.1656, 3.051333e-001, -1.055595e+000, 
3891323128.9994, 3.050905e-001, -1.056075e+000, 
3891389454.8332, 3.050908e-001, -1.056472e+000, 
3891455780.667, 3.050880e-001, -1.056884e+000, 
3891522106.5008, 3.050828e-001, -1.057237e+000, 
3891588432.3347, 3.049981e-001, -1.057641e+000, 
3891654758.1685, 3.049615e-001, -1.057969e+000, 
3891721084.0023, 3.049656e-001, -1.058318e+000, 
3891787409.8361, 3.048104e-001, -1.058577e+000, 
3891853735.6699, 3.047881e-001, -1.058909e+000, 
3891920061.5037, 3.046907e-001, -1.059132e+000, 
3891986387.3375, 3.046224e-001, -1.059366e+000, 
3892052713.1713, 3.044603e-001, -1.059570e+000, 
3892119039.0051, 3.043970e-001, -1.059704e+000, 
3892185364.8389, 3.041997e-001, -1.059941e+000, 
3892251690.6727, 3.040274e-001, -1.060021e+000, 
3892318016.5065, 3.040559e-001, -1.059798e+000, 
3892384342.3403, 3.040029e-001, -1.059660e+000, 
3892450668.1741, 3.039409e-001, -1.059451e+000, 
3892516994.0079, 3.039528e-001, -1.059239e+000, 
3892583319.8417, 3.038812e-001, -1.059097e+000, 
3892649645.6755, 3.038390e-001, -1.058926e+000, 
3892715971.5093, 3.037342e-001, -1.058751e+000, 
3892782297.3431, 3.036954e-001, -1.058602e+000, 
3892848623.1769, 3.035629e-001, -1.058467e+000, 
3892914949.0107, 3.034303e-001, -1.058328e+000, 
3892981274.8445, 3.033716e-001, -1.058195e+000, 
3893047600.6783, 3.032015e-001, -1.058094e+000, 
3893113926.5122, 3.030967e-001, -1.057904e+000, 
3893180252.346, 3.029584e-001, -1.057753e+000, 
3893246578.1798, 3.028491e-001, -1.057712e+000, 
3893312904.0136, 3.028226e-001, -1.057612e+000, 
3893379229.8474, 3.027889e-001, -1.057533e+000, 
3893445555.6812, 3.027655e-001, -1.057445e+000, 
3893511881.515, 3.027272e-001, -1.057341e+000, 
3893578207.3488, 3.027492e-001, -1.057207e+000, 
3893644533.1826, 3.027657e-001, -1.057169e+000, 
3893710859.0164, 3.026350e-001, -1.057063e+000, 
3893777184.8502, 3.026364e-001, -1.056939e+000, 
3893843510.684, 3.025919e-001, -1.056825e+000, 
3893909836.5178, 3.025789e-001, -1.056733e+000, 
3893976162.3516, 3.025124e-001, -1.056580e+000, 
3894042488.1854, 3.025077e-001, -1.056495e+000, 
3894108814.0192, 3.024400e-001, -1.056361e+000, 
3894175139.853, 3.023675e-001, -1.056205e+000, 
3894241465.6868, 3.022957e-001, -1.056087e+000, 
3894307791.5206, 3.028082e-001, -1.055697e+000, 
3894374117.3544, 3.032278e-001, -1.055356e+000, 
3894440443.1882, 3.036876e-001, -1.054995e+000, 
3894506769.022, 3.040839e-001, -1.054701e+000, 
3894573094.8559, 3.044754e-001, -1.054439e+000, 
3894639420.6897, 3.048930e-001, -1.054204e+000, 
3894705746.5235, 3.052645e-001, -1.053973e+000, 
3894772072.3573, 3.057109e-001, -1.053822e+000, 
3894838398.1911, 3.060264e-001, -1.053677e+000, 
3894904724.0249, 3.063335e-001, -1.053611e+000, 
3894971049.8587, 3.067150e-001, -1.053484e+000, 
3895037375.6925, 3.070069e-001, -1.053474e+000, 
3895103701.5263, 3.073234e-001, -1.053447e+000, 
3895170027.3601, 3.076393e-001, -1.053496e+000, 
3895236353.1939, 3.078972e-001, -1.053548e+000, 
3895302679.0277, 3.077678e-001, -1.053912e+000, 
3895369004.8615, 3.076323e-001, -1.054282e+000, 
3895435330.6953, 3.073913e-001, -1.054708e+000, 
3895501656.5291, 3.072605e-001, -1.055108e+000, 
3895567982.3629, 3.071422e-001, -1.055442e+000, 
3895634308.1967, 3.069983e-001, -1.055730e+000, 
3895700634.0305, 3.068772e-001, -1.056091e+000, 
3895766959.8643, 3.067236e-001, -1.056351e+000, 
3895833285.6981, 3.065510e-001, -1.056682e+000, 
3895899611.5319, 3.064200e-001, -1.056946e+000, 
3895965937.3657, 3.062952e-001, -1.057216e+000, 
3896032263.1995, 3.060768e-001, -1.057480e+000, 
3896098589.0334, 3.059981e-001, -1.057642e+000, 
3896164914.8672, 3.058387e-001, -1.057873e+000, 
3896231240.701, 3.057048e-001, -1.058071e+000, 
3896297566.5348, 3.057054e-001, -1.058343e+000, 
3896363892.3686, 3.056236e-001, -1.058656e+000, 
3896430218.2024, 3.055742e-001, -1.058882e+000, 
3896496544.0362, 3.055426e-001, -1.059163e+000, 
3896562869.87, 3.054677e-001, -1.059289e+000, 
3896629195.7038, 3.054079e-001, -1.059496e+000, 
3896695521.5376, 3.053426e-001, -1.059586e+000, 
3896761847.3714, 3.052290e-001, -1.059701e+000, 
3896828173.2052, 3.051180e-001, -1.059787e+000, 
3896894499.039, 3.049836e-001, -1.059832e+000, 
3896960824.8728, 3.048668e-001, -1.059893e+000, 
3897027150.7066, 3.047451e-001, -1.059850e+000, 
