"S22 POLAR"
"Frequency (Hz)","U","U",
3870563143.0187, 2.956932e-001, -1.040469e+000, 
3870629468.8525, 2.954405e-001, -1.040795e+000, 
3870695794.6863, 2.951825e-001, -1.041052e+000, 
3870762120.5201, 2.949409e-001, -1.041287e+000, 
3870828446.3539, 2.946576e-001, -1.041510e+000, 
3870894772.1877, 2.944134e-001, -1.041748e+000, 
3870961098.0215, 2.941068e-001, -1.041960e+000, 
3871027423.8553, 2.938990e-001, -1.042077e+000, 
3871093749.6891, 2.937101e-001, -1.042181e+000, 
3871160075.5229, 2.934439e-001, -1.042267e+000, 
3871226401.3567, 2.932885e-001, -1.042273e+000, 
3871292727.1905, 2.934479e-001, -1.042141e+000, 
3871359053.0243, 2.936553e-001, -1.041880e+000, 
3871425378.8581, 2.938392e-001, -1.041638e+000, 
3871491704.6919, 2.941578e-001, -1.041473e+000, 
3871558030.5257, 2.943464e-001, -1.041269e+000, 
3871624356.3595, 2.945567e-001, -1.041065e+000, 
3871690682.1933, 2.948681e-001, -1.040945e+000, 
3871757008.0271, 2.950940e-001, -1.040787e+000, 
3871823333.8609, 2.953049e-001, -1.040659e+000, 
3871889659.6947, 2.955425e-001, -1.040522e+000, 
3871955985.5285, 2.957242e-001, -1.040441e+000, 
3872022311.3624, 2.960075e-001, -1.040290e+000, 
3872088637.1962, 2.962591e-001, -1.040292e+000, 
3872154963.03, 2.964589e-001, -1.040294e+000, 
3872221288.8638, 2.967277e-001, -1.040171e+000, 
3872287614.6976, 2.965238e-001, -1.040414e+000, 
3872353940.5314, 2.962080e-001, -1.040733e+000, 
3872420266.3652, 2.958665e-001, -1.041053e+000, 
3872486592.199, 2.955380e-001, -1.041414e+000, 
3872552918.0328, 2.952174e-001, -1.041682e+000, 
3872619243.8666, 2.949885e-001, -1.041920e+000, 
3872685569.7004, 2.946473e-001, -1.042240e+000, 
3872751895.5342, 2.943960e-001, -1.042475e+000, 
3872818221.368, 2.941556e-001, -1.042757e+000, 
3872884547.2018, 2.938945e-001, -1.042921e+000, 
3872950873.0356, 2.937197e-001, -1.043057e+000, 
3873017198.8694, 2.935181e-001, -1.043208e+000, 
3873083524.7032, 2.933640e-001, -1.043391e+000, 
3873149850.537, 2.931516e-001, -1.043519e+000, 
3873216176.3708, 2.930441e-001, -1.043586e+000, 
3873282502.2046, 2.930745e-001, -1.043644e+000, 
3873348828.0384, 2.932300e-001, -1.043642e+000, 
3873415153.8722, 2.933445e-001, -1.043736e+000, 
3873481479.706, 2.934032e-001, -1.043742e+000, 
3873547805.5399, 2.936293e-001, -1.043699e+000, 
3873614131.3737, 2.937552e-001, -1.043675e+000, 
3873680457.2075, 2.938485e-001, -1.043671e+000, 
3873746783.0413, 2.940979e-001, -1.043618e+000, 
3873813108.8751, 2.942363e-001, -1.043581e+000, 
3873879434.7089, 2.944408e-001, -1.043513e+000, 
3873945760.5427, 2.945789e-001, -1.043411e+000, 
3874012086.3765, 2.948307e-001, -1.043306e+000, 
3874078412.2103, 2.949946e-001, -1.043254e+000, 
3874144738.0441, 2.951619e-001, -1.043157e+000, 
3874211063.8779, 2.953876e-001, -1.043024e+000, 
3874277389.7117, 2.954339e-001, -1.042911e+000, 
3874343715.5455, 2.953508e-001, -1.042785e+000, 
3874410041.3793, 2.952727e-001, -1.042616e+000, 
3874476367.2131, 2.952251e-001, -1.042491e+000, 
3874542693.0469, 2.950957e-001, -1.042369e+000, 
3874609018.8807, 2.950078e-001, -1.042261e+000, 
3874675344.7145, 2.949964e-001, -1.042141e+000, 
3874741670.5483, 2.948287e-001, -1.041986e+000, 
3874807996.3821, 2.947724e-001, -1.041911e+000, 
3874874322.2159, 2.947252e-001, -1.041835e+000, 
3874940648.0497, 2.946659e-001, -1.041779e+000, 
3875006973.8835, 2.946054e-001, -1.041744e+000, 
3875073299.7174, 2.944876e-001, -1.041693e+000, 
3875139625.5512, 2.944883e-001, -1.041648e+000, 
3875205951.385, 2.943935e-001, -1.041633e+000, 
3875272277.2188, 2.943502e-001, -1.041652e+000, 
3875338603.0526, 2.944630e-001, -1.041739e+000, 
3875404928.8864, 2.945412e-001, -1.041883e+000, 
3875471254.7202, 2.946433e-001, -1.041994e+000, 
3875537580.554, 2.947229e-001, -1.042106e+000, 
3875603906.3878, 2.948330e-001, -1.042317e+000, 
3875670232.2216, 2.949028e-001, -1.042390e+000, 
3875736558.0554, 2.950488e-001, -1.042578e+000, 
3875802883.8892, 2.951651e-001, -1.042802e+000, 
3875869209.723, 2.953250e-001, -1.042986e+000, 
3875935535.5568, 2.954451e-001, -1.043140e+000, 
3876001861.3906, 2.956143e-001, -1.043307e+000, 
3876068187.2244, 2.956814e-001, -1.043565e+000, 
3876134513.0582, 2.958828e-001, -1.043790e+000, 
3876200838.892, 2.959904e-001, -1.043974e+000, 
3876267164.7258, 2.959947e-001, -1.044361e+000, 
3876333490.5596, 2.956901e-001, -1.044857e+000, 
3876399816.3934, 2.954075e-001, -1.045337e+000, 
3876466142.2272, 2.951520e-001, -1.045762e+000, 
3876532468.0611, 2.949133e-001, -1.046130e+000, 
3876598793.8949, 2.947319e-001, -1.046453e+000, 
3876665119.7287, 2.945249e-001, -1.046665e+000, 
3876731445.5625, 2.943531e-001, -1.046913e+000, 
3876797771.3963, 2.942381e-001, -1.047178e+000, 
3876864097.2301, 2.940924e-001, -1.047293e+000, 
3876930423.0639, 2.939711e-001, -1.047380e+000, 
3876996748.8977, 2.939771e-001, -1.047471e+000, 
3877063074.7315, 2.939080e-001, -1.047503e+000, 
3877129400.5653, 2.939914e-001, -1.047439e+000, 
3877195726.3991, 2.940414e-001, -1.047393e+000, 
3877262052.2329, 2.943465e-001, -1.047083e+000, 
3877328378.0667, 2.949414e-001, -1.046417e+000, 
3877394703.9005, 2.955522e-001, -1.045689e+000, 
3877461029.7343, 2.960954e-001, -1.045051e+000, 
3877527355.5681, 2.966155e-001, -1.044516e+000, 
3877593681.4019, 2.970313e-001, -1.043885e+000, 
3877660007.2357, 2.974227e-001, -1.043410e+000, 
3877726333.0695, 2.977972e-001, -1.042975e+000, 
3877792658.9033, 2.980685e-001, -1.042527e+000, 
3877858984.7371, 2.983778e-001, -1.042126e+000, 
3877925310.5709, 2.986313e-001, -1.041827e+000, 
3877991636.4047, 2.987461e-001, -1.041584e+000, 
3878057962.2386, 2.989691e-001, -1.041353e+000, 
3878124288.0724, 2.989653e-001, -1.041240e+000, 
3878190613.9062, 2.991033e-001, -1.041111e+000, 
3878256939.74, 2.989983e-001, -1.041368e+000, 
3878323265.5738, 2.986688e-001, -1.042274e+000, 
3878389591.4076, 2.983664e-001, -1.043169e+000, 
3878455917.2414, 2.980254e-001, -1.043989e+000, 
3878522243.0752, 2.977075e-001, -1.044767e+000, 
3878588568.909, 2.973606e-001, -1.045458e+000, 
3878654894.7428, 2.970676e-001, -1.046238e+000, 
3878721220.5766, 2.968406e-001, -1.046817e+000, 
3878787546.4104, 2.965613e-001, -1.047385e+000, 
3878853872.2442, 2.963632e-001, -1.047936e+000, 
3878920198.078, 2.961574e-001, -1.048354e+000, 
3878986523.9118, 2.959634e-001, -1.048796e+000, 
3879052849.7456, 2.957616e-001, -1.049127e+000, 
3879119175.5794, 2.955148e-001, -1.049413e+000, 
3879185501.4132, 2.953871e-001, -1.049654e+000, 
3879251827.247, 2.952418e-001, -1.049780e+000, 
3879318153.0808, 2.948544e-001, -1.049495e+000, 
3879384478.9146, 2.945451e-001, -1.049321e+000, 
3879450804.7484, 2.943193e-001, -1.049095e+000, 
3879517130.5822, 2.939667e-001, -1.048901e+000, 
3879583456.4161, 2.936901e-001, -1.048696e+000, 
3879649782.2499, 2.934203e-001, -1.048500e+000, 
3879716108.0837, 2.931976e-001, -1.048275e+000, 
3879782433.9175, 2.930473e-001, -1.048148e+000, 
3879848759.7513, 2.928403e-001, -1.047920e+000, 
3879915085.5851, 2.926912e-001, -1.047745e+000, 
3879981411.4189, 2.924890e-001, -1.047532e+000, 
3880047737.2527, 2.923796e-001, -1.047418e+000, 
3880114063.0865, 2.922322e-001, -1.047278e+000, 
3880180388.9203, 2.921706e-001, -1.047122e+000, 
3880246714.7541, 2.921394e-001, -1.046999e+000, 
3880313040.5879, 2.925000e-001, -1.047027e+000, 
3880379366.4217, 2.928047e-001, -1.047078e+000, 
3880445692.2555, 2.931794e-001, -1.047140e+000, 
3880512018.0893, 2.935230e-001, -1.047209e+000, 
3880578343.9231, 2.937407e-001, -1.047297e+000, 
3880644669.7569, 2.940385e-001, -1.047391e+000, 
3880710995.5907, 2.943292e-001, -1.047423e+000, 
3880777321.4245, 2.945423e-001, -1.047556e+000, 
3880843647.2583, 2.948580e-001, -1.047661e+000, 
3880909973.0921, 2.950191e-001, -1.047812e+000, 
3880976298.9259, 2.952756e-001, -1.047842e+000, 
3881042624.7598, 2.954535e-001, -1.047978e+000, 
3881108950.5936, 2.956263e-001, -1.048164e+000, 
3881175276.4274, 2.957988e-001, -1.048281e+000, 
3881241602.2612, 2.958359e-001, -1.048492e+000, 
3881307928.095, 2.956591e-001, -1.048535e+000, 
3881374253.9288, 2.954065e-001, -1.048594e+000, 
3881440579.7626, 2.952211e-001, -1.048680e+000, 
3881506905.5964, 2.949499e-001, -1.048786e+000, 
3881573231.4302, 2.947103e-001, -1.048860e+000, 
3881639557.264, 2.945141e-001, -1.048982e+000, 
3881705883.0978, 2.942692e-001, -1.049049e+000, 
3881772208.9316, 2.940018e-001, -1.049135e+000, 
3881838534.7654, 2.938071e-001, -1.049246e+000, 
3881904860.5992, 2.935191e-001, -1.049339e+000, 
3881971186.433, 2.932986e-001, -1.049457e+000, 
3882037512.2668, 2.930444e-001, -1.049603e+000, 
3882103838.1006, 2.928268e-001, -1.049672e+000, 
3882170163.9344, 2.926133e-001, -1.049785e+000, 
3882236489.7682, 2.923653e-001, -1.049901e+000, 
3882302815.602, 2.920084e-001, -1.050137e+000, 
3882369141.4358, 2.917677e-001, -1.050451e+000, 
3882435467.2696, 2.915128e-001, -1.050661e+000, 
3882501793.1034, 2.912256e-001, -1.050848e+000, 
3882568118.9373, 2.910314e-001, -1.050971e+000, 
3882634444.7711, 2.908109e-001, -1.051124e+000, 
3882700770.6049, 2.906334e-001, -1.051220e+000, 
3882767096.4387, 2.903416e-001, -1.051348e+000, 
3882833422.2725, 2.901759e-001, -1.051353e+000, 
3882899748.1063, 2.900434e-001, -1.051448e+000, 
3882966073.9401, 2.898920e-001, -1.051405e+000, 
3883032399.7739, 2.897554e-001, -1.051380e+000, 
3883098725.6077, 2.896602e-001, -1.051284e+000, 
3883165051.4415, 2.895188e-001, -1.051266e+000, 
3883231377.2753, 2.894941e-001, -1.051167e+000, 
3883297703.1091, 2.894809e-001, -1.050797e+000, 
3883364028.9429, 2.895049e-001, -1.050454e+000, 
3883430354.7767, 2.895583e-001, -1.050153e+000, 
3883496680.6105, 2.895528e-001, -1.049856e+000, 
3883563006.4443, 2.896366e-001, -1.049620e+000, 
3883629332.2781, 2.896518e-001, -1.049439e+000, 
3883695658.1119, 2.896764e-001, -1.049194e+000, 
3883761983.9457, 2.898090e-001, -1.049050e+000, 
3883828309.7795, 2.897340e-001, -1.048907e+000, 
3883894635.6133, 2.898305e-001, -1.048762e+000, 
3883960961.4471, 2.899484e-001, -1.048717e+000, 
3884027287.2809, 2.899422e-001, -1.048713e+000, 
3884093613.1148, 2.900262e-001, -1.048685e+000, 
3884159938.9486, 2.900894e-001, -1.048737e+000, 
3884226264.7824, 2.902261e-001, -1.048771e+000, 
3884292590.6162, 2.903606e-001, -1.049281e+000, 
3884358916.45, 2.905556e-001, -1.049887e+000, 
3884425242.2838, 2.906763e-001, -1.050420e+000, 
3884491568.1176, 2.908460e-001, -1.050976e+000, 
3884557893.9514, 2.909783e-001, -1.051552e+000, 
3884624219.7852, 2.911761e-001, -1.051941e+000, 
3884690545.619, 2.912811e-001, -1.052456e+000, 
3884756871.4528, 2.913285e-001, -1.052881e+000, 
3884823197.2866, 2.913715e-001, -1.053307e+000, 
3884889523.1204, 2.914502e-001, -1.053656e+000, 
3884955848.9542, 2.914566e-001, -1.054033e+000, 
3885022174.788, 2.915502e-001, -1.054325e+000, 
3885088500.6218, 2.915483e-001, -1.054606e+000, 
3885154826.4556, 2.915137e-001, -1.054863e+000, 
3885221152.2894, 2.915260e-001, -1.055081e+000, 
3885287478.1232, 2.913448e-001, -1.055145e+000, 
3885353803.957, 2.911503e-001, -1.055003e+000, 
3885420129.7908, 2.909971e-001, -1.054961e+000, 
3885486455.6246, 2.908152e-001, -1.054873e+000, 
3885552781.4585, 2.906708e-001, -1.054802e+000, 
3885619107.2923, 2.905924e-001, -1.054721e+000, 
3885685433.1261, 2.903920e-001, -1.054659e+000, 
3885751758.9599, 2.903046e-001, -1.054642e+000, 
3885818084.7937, 2.901733e-001, -1.054576e+000, 
3885884410.6275, 2.900780e-001, -1.054523e+000, 
3885950736.4613, 2.899509e-001, -1.054462e+000, 
3886017062.2951, 2.899001e-001, -1.054386e+000, 
3886083388.1289, 2.897954e-001, -1.054385e+000, 
3886149713.9627, 2.897532e-001, -1.054371e+000, 
3886216039.7965, 2.897041e-001, -1.054349e+000, 
3886282365.6303, 2.898432e-001, -1.054259e+000, 
3886348691.4641, 2.903098e-001, -1.054103e+000, 
3886415017.2979, 2.906186e-001, -1.053979e+000, 
3886481343.1317, 2.909831e-001, -1.053929e+000, 
3886547668.9655, 2.912279e-001, -1.053785e+000, 
3886613994.7993, 2.915345e-001, -1.053695e+000, 
3886680320.6331, 2.918091e-001, -1.053613e+000, 
3886746646.4669, 2.920713e-001, -1.053466e+000, 
3886812972.3007, 2.922286e-001, -1.053441e+000, 
3886879298.1345, 2.924156e-001, -1.053357e+000, 
3886945623.9683, 2.926428e-001, -1.053325e+000, 
3887011949.8021, 2.927593e-001, -1.053281e+000, 
3887078275.636, 2.929752e-001, -1.053249e+000, 
3887144601.4698, 2.930578e-001, -1.053238e+000, 
3887210927.3036, 2.931180e-001, -1.053213e+000, 
3887277253.1374, 2.930286e-001, -1.053351e+000, 
3887343578.9712, 2.928585e-001, -1.053684e+000, 
3887409904.805, 2.926877e-001, -1.053941e+000, 
3887476230.6388, 2.924958e-001, -1.054253e+000, 
3887542556.4726, 2.922800e-001, -1.054460e+000, 
3887608882.3064, 2.921576e-001, -1.054762e+000, 
3887675208.1402, 2.919860e-001, -1.055009e+000, 
3887741533.974, 2.918620e-001, -1.055233e+000, 
3887807859.8078, 2.917110e-001, -1.055450e+000, 
3887874185.6416, 2.915704e-001, -1.055650e+000, 
3887940511.4754, 2.914550e-001, -1.055872e+000, 
3888006837.3092, 2.912934e-001, -1.056066e+000, 
3888073163.143, 2.912310e-001, -1.056293e+000, 
3888139488.9768, 2.910888e-001, -1.056408e+000, 
3888205814.8106, 2.909684e-001, -1.056596e+000, 
3888272140.6444, 2.911330e-001, -1.056790e+000, 
3888338466.4782, 2.914545e-001, -1.056957e+000, 
3888404792.312, 2.917249e-001, -1.057072e+000, 
3888471118.1458, 2.920448e-001, -1.057144e+000, 
3888537443.9796, 2.923040e-001, -1.057236e+000, 
3888603769.8135, 2.925839e-001, -1.057326e+000, 
3888670095.6473, 2.928142e-001, -1.057370e+000, 
3888736421.4811, 2.931130e-001, -1.057382e+000, 
3888802747.3149, 2.933725e-001, -1.057420e+000, 
3888869073.1487, 2.935632e-001, -1.057422e+000, 
3888935398.9825, 2.937858e-001, -1.057375e+000, 
3889001724.8163, 2.939900e-001, -1.057347e+000, 
3889068050.6501, 2.942358e-001, -1.057288e+000, 
3889134376.4839, 2.944081e-001, -1.057202e+000, 
3889200702.3177, 2.945905e-001, -1.057122e+000, 
3889267028.1515, 2.948635e-001, -1.056859e+000, 
3889333353.9853, 2.952431e-001, -1.056482e+000, 
3889399679.8191, 2.955381e-001, -1.056060e+000, 
3889466005.6529, 2.958398e-001, -1.055744e+000, 
3889532331.4867, 2.961092e-001, -1.055393e+000, 
3889598657.3205, 2.963326e-001, -1.055084e+000, 
3889664983.1543, 2.966290e-001, -1.054727e+000, 
3889731308.9881, 2.968455e-001, -1.054427e+000, 
3889797634.8219, 2.970526e-001, -1.054186e+000, 
3889863960.6557, 2.972032e-001, -1.053918e+000, 
3889930286.4895, 2.973522e-001, -1.053656e+000, 
3889996612.3233, 2.974671e-001, -1.053467e+000, 
3890062938.1572, 2.976048e-001, -1.053232e+000, 
3890129263.991, 2.977107e-001, -1.053031e+000, 
3890195589.8248, 2.976776e-001, -1.052868e+000, 
3890261915.6586, 2.977023e-001, -1.052748e+000, 
3890328241.4924, 2.973436e-001, -1.052743e+000, 
3890394567.3262, 2.969801e-001, -1.052811e+000, 
3890460893.16, 2.966478e-001, -1.052788e+000, 
3890527218.9938, 2.962891e-001, -1.052850e+000, 
3890593544.8276, 2.959800e-001, -1.052865e+000, 
3890659870.6614, 2.956238e-001, -1.052917e+000, 
3890726196.4952, 2.952996e-001, -1.052957e+000, 
3890792522.329, 2.949152e-001, -1.053025e+000, 
3890858848.1628, 2.946780e-001, -1.053111e+000, 
3890925173.9966, 2.943081e-001, -1.053182e+000, 
3890991499.8304, 2.939785e-001, -1.053270e+000, 
3891057825.6642, 2.936815e-001, -1.053373e+000, 
3891124151.498, 2.933859e-001, -1.053428e+000, 
3891190477.3318, 2.930736e-001, -1.053547e+000, 
3891256803.1656, 2.928189e-001, -1.053747e+000, 
3891323128.9994, 2.928276e-001, -1.054222e+000, 
3891389454.8332, 2.927946e-001, -1.054601e+000, 
3891455780.667, 2.928013e-001, -1.055017e+000, 
3891522106.5008, 2.927236e-001, -1.055366e+000, 
3891588432.3347, 2.927012e-001, -1.055753e+000, 
3891654758.1685, 2.926617e-001, -1.056102e+000, 
3891721084.0023, 2.925895e-001, -1.056386e+000, 
3891787409.8361, 2.925734e-001, -1.056681e+000, 
3891853735.6699, 2.924436e-001, -1.056985e+000, 
3891920061.5037, 2.923706e-001, -1.057199e+000, 
3891986387.3375, 2.922435e-001, -1.057492e+000, 
3892052713.1713, 2.921324e-001, -1.057606e+000, 
3892119039.0051, 2.919728e-001, -1.057854e+000, 
3892185364.8389, 2.918533e-001, -1.057995e+000, 
3892251690.6727, 2.917348e-001, -1.058062e+000, 
3892318016.5065, 2.917140e-001, -1.057894e+000, 
3892384342.3403, 2.916831e-001, -1.057668e+000, 
3892450668.1741, 2.916241e-001, -1.057522e+000, 
3892516994.0079, 2.916014e-001, -1.057349e+000, 
3892583319.8417, 2.915229e-001, -1.057204e+000, 
3892649645.6755, 2.914507e-001, -1.056983e+000, 
3892715971.5093, 2.913630e-001, -1.056868e+000, 
3892782297.3431, 2.913080e-001, -1.056662e+000, 
3892848623.1769, 2.911828e-001, -1.056508e+000, 
3892914949.0107, 2.911160e-001, -1.056337e+000, 
3892981274.8445, 2.910349e-001, -1.056267e+000, 
3893047600.6783, 2.909631e-001, -1.056084e+000, 
3893113926.5122, 2.907694e-001, -1.055946e+000, 
3893180252.346, 2.906801e-001, -1.055879e+000, 
3893246578.1798, 2.905168e-001, -1.055779e+000, 
3893312904.0136, 2.904826e-001, -1.055670e+000, 
3893379229.8474, 2.904450e-001, -1.055561e+000, 
3893445555.6812, 2.904295e-001, -1.055500e+000, 
3893511881.515, 2.904017e-001, -1.055380e+000, 
3893578207.3488, 2.904315e-001, -1.055304e+000, 
3893644533.1826, 2.903960e-001, -1.055205e+000, 
3893710859.0164, 2.903364e-001, -1.055131e+000, 
3893777184.8502, 2.903424e-001, -1.054962e+000, 
3893843510.684, 2.902970e-001, -1.054861e+000, 
3893909836.5178, 2.902515e-001, -1.054746e+000, 
3893976162.3516, 2.902266e-001, -1.054661e+000, 
3894042488.1854, 2.901996e-001, -1.054528e+000, 
3894108814.0192, 2.901525e-001, -1.054389e+000, 
3894175139.853, 2.901081e-001, -1.054313e+000, 
3894241465.6868, 2.900197e-001, -1.054165e+000, 
3894307791.5206, 2.905054e-001, -1.053803e+000, 
3894374117.3544, 2.909630e-001, -1.053434e+000, 
3894440443.1882, 2.913402e-001, -1.053112e+000, 
3894506769.022, 2.918156e-001, -1.052841e+000, 
3894573094.8559, 2.922530e-001, -1.052576e+000, 
3894639420.6897, 2.925769e-001, -1.052340e+000, 
3894705746.5235, 2.929800e-001, -1.052103e+000, 
3894772072.3573, 2.933715e-001, -1.051906e+000, 
3894838398.1911, 2.936558e-001, -1.051803e+000, 
3894904724.0249, 2.940781e-001, -1.051735e+000, 
3894971049.8587, 2.944372e-001, -1.051629e+000, 
3895037375.6925, 2.946289e-001, -1.051630e+000, 
3895103701.5263, 2.949938e-001, -1.051635e+000, 
3895170027.3601, 2.952811e-001, -1.051663e+000, 
3895236353.1939, 2.955693e-001, -1.051720e+000, 
3895302679.0277, 2.954402e-001, -1.052104e+000, 
3895369004.8615, 2.952628e-001, -1.052516e+000, 
3895435330.6953, 2.950318e-001, -1.052869e+000, 
3895501656.5291, 2.949462e-001, -1.053236e+000, 
3895567982.3629, 2.947943e-001, -1.053617e+000, 
3895634308.1967, 2.946181e-001, -1.053932e+000, 
3895700634.0305, 2.944866e-001, -1.054227e+000, 
3895766959.8643, 2.942474e-001, -1.054517e+000, 
3895833285.6981, 2.941923e-001, -1.054814e+000, 
3895899611.5319, 2.940374e-001, -1.055118e+000, 
3895965937.3657, 2.939105e-001, -1.055301e+000, 
3896032263.1995, 2.937672e-001, -1.055545e+000, 
3896098589.0334, 2.935869e-001, -1.055773e+000, 
3896164914.8672, 2.934882e-001, -1.056021e+000, 
3896231240.701, 2.933622e-001, -1.056184e+000, 
3896297566.5348, 2.932784e-001, -1.056450e+000, 
3896363892.3686, 2.932082e-001, -1.056731e+000, 
3896430218.2024, 2.931681e-001, -1.057035e+000, 
3896496544.0362, 2.931842e-001, -1.057165e+000, 
3896562869.87, 2.930816e-001, -1.057369e+000, 
3896629195.7038, 2.929890e-001, -1.057564e+000, 
3896695521.5376, 2.929102e-001, -1.057696e+000, 
3896761847.3714, 2.928201e-001, -1.057757e+000, 
3896828173.2052, 2.927213e-001, -1.057860e+000, 
3896894499.039, 2.926106e-001, -1.057893e+000, 
3896960824.8728, 2.924359e-001, -1.057932e+000, 
3897027150.7066, 2.923918e-001, -1.057905e+000, 
