"S11 POLAR"
"Frequency (Hz)","U","U",
3870563143.0187, 7.419739e-001, -6.837668e-001, 
3870629468.8525, 7.422364e-001, -6.837323e-001, 
3870695794.6863, 7.424496e-001, -6.837094e-001, 
3870762120.5201, 7.426729e-001, -6.837103e-001, 
3870828446.3539, 7.428644e-001, -6.837693e-001, 
3870894772.1877, 7.430144e-001, -6.837801e-001, 
3870961098.0215, 7.431616e-001, -6.838608e-001, 
3871027423.8553, 7.433515e-001, -6.839079e-001, 
3871093749.6891, 7.434841e-001, -6.839860e-001, 
3871160075.5229, 7.435691e-001, -6.840329e-001, 
3871226401.3567, 7.436677e-001, -6.840890e-001, 
3871292727.1905, 7.436950e-001, -6.842092e-001, 
3871359053.0243, 7.435951e-001, -6.843096e-001, 
3871425378.8581, 7.436444e-001, -6.843796e-001, 
3871491704.6919, 7.435573e-001, -6.845123e-001, 
3871558030.5257, 7.435466e-001, -6.845786e-001, 
3871624356.3595, 7.434946e-001, -6.846406e-001, 
3871690682.1933, 7.434468e-001, -6.846658e-001, 
3871757008.0271, 7.434246e-001, -6.846934e-001, 
3871823333.8609, 7.433681e-001, -6.847377e-001, 
3871889659.6947, 7.432905e-001, -6.847115e-001, 
3871955985.5285, 7.432176e-001, -6.847385e-001, 
3872022311.3624, 7.431666e-001, -6.846951e-001, 
3872088637.1962, 7.430774e-001, -6.846830e-001, 
3872154963.03, 7.429979e-001, -6.846492e-001, 
3872221288.8638, 7.429437e-001, -6.845608e-001, 
3872287614.6976, 7.427446e-001, -6.844456e-001, 
3872353940.5314, 7.425513e-001, -6.841875e-001, 
3872420266.3652, 7.423590e-001, -6.840509e-001, 
3872486592.199, 7.421879e-001, -6.839043e-001, 
3872552918.0328, 7.419935e-001, -6.836894e-001, 
3872619243.8666, 7.418509e-001, -6.835526e-001, 
3872685569.7004, 7.417640e-001, -6.834152e-001, 
3872751895.5342, 7.416546e-001, -6.832569e-001, 
3872818221.368, 7.415745e-001, -6.830695e-001, 
3872884547.2018, 7.414486e-001, -6.829825e-001, 
3872950873.0356, 7.413788e-001, -6.829258e-001, 
3873017198.8694, 7.413014e-001, -6.827480e-001, 
3873083524.7032, 7.412763e-001, -6.826885e-001, 
3873149850.537, 7.412370e-001, -6.826238e-001, 
3873216176.3708, 7.411988e-001, -6.825445e-001, 
3873282502.2046, 7.412668e-001, -6.825384e-001, 
3873348828.0384, 7.414287e-001, -6.825763e-001, 
3873415153.8722, 7.415341e-001, -6.826094e-001, 
3873481479.706, 7.416264e-001, -6.826757e-001, 
3873547805.5399, 7.417763e-001, -6.826888e-001, 
3873614131.3737, 7.418777e-001, -6.828090e-001, 
3873680457.2075, 7.419298e-001, -6.828305e-001, 
3873746783.0413, 7.420171e-001, -6.829420e-001, 
3873813108.8751, 7.420916e-001, -6.829779e-001, 
3873879434.7089, 7.421404e-001, -6.830639e-001, 
3873945760.5427, 7.421849e-001, -6.831436e-001, 
3874012086.3765, 7.422447e-001, -6.831988e-001, 
3874078412.2103, 7.422435e-001, -6.832600e-001, 
3874144738.0441, 7.422674e-001, -6.833192e-001, 
3874211063.8779, 7.422414e-001, -6.833839e-001, 
3874277389.7117, 7.422271e-001, -6.834001e-001, 
3874343715.5455, 7.421435e-001, -6.834167e-001, 
3874410041.3793, 7.420992e-001, -6.833983e-001, 
3874476367.2131, 7.420590e-001, -6.834272e-001, 
3874542693.0469, 7.420029e-001, -6.834384e-001, 
3874609018.8807, 7.419315e-001, -6.834252e-001, 
3874675344.7145, 7.418843e-001, -6.834766e-001, 
3874741670.5483, 7.418950e-001, -6.834500e-001, 
3874807996.3821, 7.418008e-001, -6.834164e-001, 
3874874322.2159, 7.417732e-001, -6.834046e-001, 
3874940648.0497, 7.417122e-001, -6.833357e-001, 
3875006973.8835, 7.416823e-001, -6.833020e-001, 
3875073299.7174, 7.415914e-001, -6.832408e-001, 
3875139625.5512, 7.415323e-001, -6.832128e-001, 
3875205951.385, 7.414994e-001, -6.831998e-001, 
3875272277.2188, 7.414935e-001, -6.830694e-001, 
3875338603.0526, 7.414277e-001, -6.830195e-001, 
3875404928.8864, 7.414200e-001, -6.829441e-001, 
3875471254.7202, 7.413891e-001, -6.828679e-001, 
3875537580.554, 7.413603e-001, -6.828967e-001, 
3875603906.3878, 7.413412e-001, -6.827605e-001, 
3875670232.2216, 7.412977e-001, -6.827272e-001, 
3875736558.0554, 7.412493e-001, -6.826801e-001, 
3875802883.8892, 7.411788e-001, -6.826494e-001, 
3875869209.723, 7.411745e-001, -6.826395e-001, 
3875935535.5568, 7.411435e-001, -6.826010e-001, 
3876001861.3906, 7.410412e-001, -6.826180e-001, 
3876068187.2244, 7.410736e-001, -6.826218e-001, 
3876134513.0582, 7.409657e-001, -6.826029e-001, 
3876200838.892, 7.409041e-001, -6.826559e-001, 
3876267164.7258, 7.409344e-001, -6.826716e-001, 
3876333490.5596, 7.409058e-001, -6.826782e-001, 
3876399816.3934, 7.408662e-001, -6.826750e-001, 
3876466142.2272, 7.408625e-001, -6.827078e-001, 
3876532468.0611, 7.408739e-001, -6.826644e-001, 
3876598793.8949, 7.408369e-001, -6.826675e-001, 
3876665119.7287, 7.408144e-001, -6.826084e-001, 
3876731445.5625, 7.408186e-001, -6.826057e-001, 
3876797771.3963, 7.408346e-001, -6.825543e-001, 
3876864097.2301, 7.407688e-001, -6.825322e-001, 
3876930423.0639, 7.407343e-001, -6.825520e-001, 
3876996748.8977, 7.407174e-001, -6.825069e-001, 
3877063074.7315, 7.406766e-001, -6.824958e-001, 
3877129400.5653, 7.406277e-001, -6.825147e-001, 
3877195726.3991, 7.406412e-001, -6.823871e-001, 
3877262052.2329, 7.405620e-001, -6.824170e-001, 
3877328378.0667, 7.404358e-001, -6.822342e-001, 
3877394703.9005, 7.403331e-001, -6.820938e-001, 
3877461029.7343, 7.402351e-001, -6.819972e-001, 
3877527355.5681, 7.401979e-001, -6.818895e-001, 
3877593681.4019, 7.401105e-001, -6.817679e-001, 
3877660007.2357, 7.400637e-001, -6.817326e-001, 
3877726333.0695, 7.399950e-001, -6.816217e-001, 
3877792658.9033, 7.399342e-001, -6.815706e-001, 
3877858984.7371, 7.399542e-001, -6.815002e-001, 
3877925310.5709, 7.399232e-001, -6.814184e-001, 
3877991636.4047, 7.399548e-001, -6.813489e-001, 
3878057962.2386, 7.399533e-001, -6.813621e-001, 
3878124288.0724, 7.399075e-001, -6.812834e-001, 
3878190613.9062, 7.399651e-001, -6.812693e-001, 
3878256939.74, 7.400774e-001, -6.813232e-001, 
3878323265.5738, 7.403120e-001, -6.814424e-001, 
3878389591.4076, 7.405923e-001, -6.815525e-001, 
3878455917.2414, 7.407669e-001, -6.816572e-001, 
3878522243.0752, 7.410117e-001, -6.817856e-001, 
3878588568.909, 7.411978e-001, -6.819453e-001, 
3878654894.7428, 7.414067e-001, -6.820462e-001, 
3878721220.5766, 7.414888e-001, -6.822141e-001, 
3878787546.4104, 7.415852e-001, -6.822918e-001, 
3878853872.2442, 7.417289e-001, -6.824203e-001, 
3878920198.078, 7.418362e-001, -6.825516e-001, 
3878986523.9118, 7.418588e-001, -6.826821e-001, 
3879052849.7456, 7.419736e-001, -6.827330e-001, 
3879119175.5794, 7.419602e-001, -6.828330e-001, 
3879185501.4132, 7.419674e-001, -6.828797e-001, 
3879251827.247, 7.419665e-001, -6.829097e-001, 
3879318153.0808, 7.418980e-001, -6.827541e-001, 
3879384478.9146, 7.418606e-001, -6.825638e-001, 
3879450804.7484, 7.418036e-001, -6.824159e-001, 
3879517130.5822, 7.417262e-001, -6.822824e-001, 
3879583456.4161, 7.416751e-001, -6.821094e-001, 
3879649782.2499, 7.415959e-001, -6.820413e-001, 
3879716108.0837, 7.415209e-001, -6.819219e-001, 
3879782433.9175, 7.414825e-001, -6.818222e-001, 
3879848759.7513, 7.414444e-001, -6.817002e-001, 
3879915085.5851, 7.413502e-001, -6.815981e-001, 
3879981411.4189, 7.413498e-001, -6.815305e-001, 
3880047737.2527, 7.413077e-001, -6.814327e-001, 
3880114063.0865, 7.412499e-001, -6.813851e-001, 
3880180388.9203, 7.412497e-001, -6.812881e-001, 
3880246714.7541, 7.412267e-001, -6.812875e-001, 
3880313040.5879, 7.410330e-001, -6.813175e-001, 
3880379366.4217, 7.408904e-001, -6.814607e-001, 
3880445692.2555, 7.406820e-001, -6.815721e-001, 
3880512018.0893, 7.405521e-001, -6.816482e-001, 
3880578343.9231, 7.403886e-001, -6.817504e-001, 
3880644669.7569, 7.402498e-001, -6.818525e-001, 
3880710995.5907, 7.401270e-001, -6.819637e-001, 
3880777321.4245, 7.400511e-001, -6.821203e-001, 
3880843647.2583, 7.398350e-001, -6.822599e-001, 
3880909973.0921, 7.397650e-001, -6.824374e-001, 
3880976298.9259, 7.396100e-001, -6.825422e-001, 
3881042624.7598, 7.395383e-001, -6.827264e-001, 
3881108950.5936, 7.394312e-001, -6.828451e-001, 
3881175276.4274, 7.393357e-001, -6.830387e-001, 
3881241602.2612, 7.392566e-001, -6.832617e-001, 
3881307928.095, 7.395365e-001, -6.831922e-001, 
3881374253.9288, 7.397889e-001, -6.831930e-001, 
3881440579.7626, 7.400540e-001, -6.831647e-001, 
3881506905.5964, 7.403131e-001, -6.831101e-001, 
3881573231.4302, 7.405432e-001, -6.830546e-001, 
3881639557.264, 7.407757e-001, -6.830502e-001, 
3881705883.0978, 7.410311e-001, -6.830167e-001, 
3881772208.9316, 7.411789e-001, -6.828839e-001, 
3881838534.7654, 7.414008e-001, -6.829011e-001, 
3881904860.5992, 7.416214e-001, -6.828460e-001, 
3881971186.433, 7.418115e-001, -6.827402e-001, 
3882037512.2668, 7.419745e-001, -6.826767e-001, 
3882103838.1006, 7.421421e-001, -6.826590e-001, 
3882170163.9344, 7.423021e-001, -6.825649e-001, 
3882236489.7682, 7.424821e-001, -6.825078e-001, 
3882302815.602, 7.423787e-001, -6.824543e-001, 
3882369141.4358, 7.422298e-001, -6.823508e-001, 
3882435467.2696, 7.420889e-001, -6.823161e-001, 
3882501793.1034, 7.419927e-001, -6.822799e-001, 
3882568118.9373, 7.419558e-001, -6.822581e-001, 
3882634444.7711, 7.418059e-001, -6.822206e-001, 
3882700770.6049, 7.417176e-001, -6.821712e-001, 
3882767096.4387, 7.415937e-001, -6.822147e-001, 
3882833422.2725, 7.414900e-001, -6.821991e-001, 
3882899748.1063, 7.413896e-001, -6.822386e-001, 
3882966073.9401, 7.413723e-001, -6.822962e-001, 
3883032399.7739, 7.412610e-001, -6.823109e-001, 
3883098725.6077, 7.411874e-001, -6.823927e-001, 
3883165051.4415, 7.411659e-001, -6.824267e-001, 
3883231377.2753, 7.410482e-001, -6.824706e-001, 
3883297703.1091, 7.411476e-001, -6.825157e-001, 
3883364028.9429, 7.411880e-001, -6.826026e-001, 
3883430354.7767, 7.412923e-001, -6.826879e-001, 
3883496680.6105, 7.413160e-001, -6.827266e-001, 
3883563006.4443, 7.413525e-001, -6.827594e-001, 
3883629332.2781, 7.414346e-001, -6.827930e-001, 
3883695658.1119, 7.414912e-001, -6.828938e-001, 
3883761983.9457, 7.415513e-001, -6.828966e-001, 
3883828309.7795, 7.415583e-001, -6.829697e-001, 
3883894635.6133, 7.416566e-001, -6.829895e-001, 
3883960961.4471, 7.416563e-001, -6.830196e-001, 
3884027287.2809, 7.417372e-001, -6.831071e-001, 
3884093613.1148, 7.417529e-001, -6.831813e-001, 
3884159938.9486, 7.417546e-001, -6.831629e-001, 
3884226264.7824, 7.418240e-001, -6.831903e-001, 
3884292590.6162, 7.418162e-001, -6.832466e-001, 
3884358916.45, 7.418425e-001, -6.833165e-001, 
3884425242.2838, 7.418494e-001, -6.833289e-001, 
3884491568.1176, 7.418543e-001, -6.833845e-001, 
3884557893.9514, 7.418676e-001, -6.833704e-001, 
3884624219.7852, 7.418405e-001, -6.834177e-001, 
3884690545.619, 7.418272e-001, -6.834846e-001, 
3884756871.4528, 7.418221e-001, -6.834518e-001, 
3884823197.2866, 7.417414e-001, -6.834775e-001, 
3884889523.1204, 7.417308e-001, -6.834120e-001, 
3884955848.9542, 7.416676e-001, -6.834667e-001, 
3885022174.788, 7.416092e-001, -6.834060e-001, 
3885088500.6218, 7.415943e-001, -6.833612e-001, 
3885154826.4556, 7.415119e-001, -6.832827e-001, 
3885221152.2894, 7.414840e-001, -6.832584e-001, 
3885287478.1232, 7.414668e-001, -6.831825e-001, 
3885353803.957, 7.415257e-001, -6.830275e-001, 
3885420129.7908, 7.415746e-001, -6.829866e-001, 
3885486455.6246, 7.415769e-001, -6.828288e-001, 
3885552781.4585, 7.415935e-001, -6.827459e-001, 
3885619107.2923, 7.416123e-001, -6.826365e-001, 
3885685433.1261, 7.416372e-001, -6.825255e-001, 
3885751758.9599, 7.416388e-001, -6.824443e-001, 
3885818084.7937, 7.416527e-001, -6.823571e-001, 
3885884410.6275, 7.417062e-001, -6.822324e-001, 
3885950736.4613, 7.416537e-001, -6.821522e-001, 
3886017062.2951, 7.416847e-001, -6.820641e-001, 
3886083388.1289, 7.416914e-001, -6.819572e-001, 
3886149713.9627, 7.416291e-001, -6.818693e-001, 
3886216039.7965, 7.416226e-001, -6.818106e-001, 
3886282365.6303, 7.415855e-001, -6.816686e-001, 
3886348691.4641, 7.414727e-001, -6.814713e-001, 
3886415017.2979, 7.413911e-001, -6.813423e-001, 
3886481343.1317, 7.412941e-001, -6.811934e-001, 
3886547668.9655, 7.412228e-001, -6.810508e-001, 
3886613994.7993, 7.411526e-001, -6.809220e-001, 
3886680320.6331, 7.410424e-001, -6.808258e-001, 
3886746646.4669, 7.409780e-001, -6.807603e-001, 
3886812972.3007, 7.408472e-001, -6.806612e-001, 
3886879298.1345, 7.407936e-001, -6.806415e-001, 
3886945623.9683, 7.407333e-001, -6.806082e-001, 
3887011949.8021, 7.406773e-001, -6.805620e-001, 
3887078275.636, 7.406503e-001, -6.805728e-001, 
3887144601.4698, 7.405472e-001, -6.805922e-001, 
3887210927.3036, 7.405047e-001, -6.805939e-001, 
3887277253.1374, 7.405685e-001, -6.808341e-001, 
3887343578.9712, 7.407188e-001, -6.812598e-001, 
3887409904.805, 7.408631e-001, -6.816387e-001, 
3887476230.6388, 7.408459e-001, -6.820144e-001, 
3887542556.4726, 7.408925e-001, -6.823406e-001, 
3887608882.3064, 7.409903e-001, -6.826493e-001, 
3887675208.1402, 7.409274e-001, -6.829546e-001, 
3887741533.974, 7.409002e-001, -6.832457e-001, 
3887807859.8078, 7.408635e-001, -6.835144e-001, 
3887874185.6416, 7.407502e-001, -6.837439e-001, 
3887940511.4754, 7.406592e-001, -6.839567e-001, 
3888006837.3092, 7.405521e-001, -6.841244e-001, 
3888073163.143, 7.403750e-001, -6.842972e-001, 
3888139488.9768, 7.402636e-001, -6.843998e-001, 
3888205814.8106, 7.401019e-001, -6.844981e-001, 
3888272140.6444, 7.400327e-001, -6.844488e-001, 
3888338466.4782, 7.401521e-001, -6.842934e-001, 
3888404792.312, 7.403168e-001, -6.840859e-001, 
3888471118.1458, 7.404075e-001, -6.839302e-001, 
3888537443.9796, 7.405608e-001, -6.838025e-001, 
3888603769.8135, 7.407644e-001, -6.837029e-001, 
3888670095.6473, 7.407949e-001, -6.835056e-001, 
3888736421.4811, 7.409651e-001, -6.833239e-001, 
3888802747.3149, 7.410620e-001, -6.831701e-001, 
3888869073.1487, 7.412295e-001, -6.830190e-001, 
3888935398.9825, 7.413598e-001, -6.828323e-001, 
3889001724.8163, 7.415179e-001, -6.827087e-001, 
3889068050.6501, 7.416385e-001, -6.825461e-001, 
3889134376.4839, 7.417891e-001, -6.824084e-001, 
3889200702.3177, 7.419302e-001, -6.822935e-001, 
3889267028.1515, 7.419016e-001, -6.820983e-001, 
3889333353.9853, 7.416605e-001, -6.817489e-001, 
3889399679.8191, 7.413947e-001, -6.814982e-001, 
3889466005.6529, 7.411010e-001, -6.813140e-001, 
3889532331.4867, 7.409154e-001, -6.810748e-001, 
3889598657.3205, 7.406568e-001, -6.809378e-001, 
3889664983.1543, 7.404662e-001, -6.807650e-001, 
3889731308.9881, 7.401674e-001, -6.806418e-001, 
3889797634.8219, 7.399479e-001, -6.805639e-001, 
3889863960.6557, 7.397896e-001, -6.805531e-001, 
3889930286.4895, 7.395716e-001, -6.805282e-001, 
3889996612.3233, 7.393646e-001, -6.805134e-001, 
3890062938.1572, 7.392002e-001, -6.805923e-001, 
3890129263.991, 7.390449e-001, -6.805862e-001, 
3890195589.8248, 7.388612e-001, -6.807383e-001, 
3890261915.6586, 7.388119e-001, -6.809290e-001, 
3890328241.4924, 7.389393e-001, -6.813483e-001, 
3890394567.3262, 7.391012e-001, -6.817558e-001, 
3890460893.16, 7.392101e-001, -6.820827e-001, 
3890527218.9938, 7.393239e-001, -6.824678e-001, 
3890593544.8276, 7.394521e-001, -6.827925e-001, 
3890659870.6614, 7.395170e-001, -6.831216e-001, 
3890726196.4952, 7.395894e-001, -6.833451e-001, 
3890792522.329, 7.395661e-001, -6.835665e-001, 
3890858848.1628, 7.396007e-001, -6.837501e-001, 
3890925173.9966, 7.395803e-001, -6.839727e-001, 
3890991499.8304, 7.395594e-001, -6.841019e-001, 
3891057825.6642, 7.395377e-001, -6.842613e-001, 
3891124151.498, 7.395477e-001, -6.843021e-001, 
3891190477.3318, 7.394466e-001, -6.844250e-001, 
3891256803.1656, 7.394685e-001, -6.844221e-001, 
3891323128.9994, 7.395112e-001, -6.845542e-001, 
3891389454.8332, 7.395405e-001, -6.846033e-001, 
3891455780.667, 7.395874e-001, -6.847002e-001, 
3891522106.5008, 7.396860e-001, -6.847619e-001, 
3891588432.3347, 7.397161e-001, -6.848389e-001, 
3891654758.1685, 7.398160e-001, -6.849600e-001, 
3891721084.0023, 7.398675e-001, -6.850265e-001, 
3891787409.8361, 7.399271e-001, -6.850742e-001, 
3891853735.6699, 7.399556e-001, -6.851490e-001, 
3891920061.5037, 7.400281e-001, -6.852183e-001, 
3891986387.3375, 7.400683e-001, -6.852674e-001, 
3892052713.1713, 7.401328e-001, -6.853223e-001, 
3892119039.0051, 7.402363e-001, -6.853714e-001, 
3892185364.8389, 7.402380e-001, -6.854562e-001, 
3892251690.6727, 7.403136e-001, -6.854694e-001, 
3892318016.5065, 7.405196e-001, -6.850464e-001, 
3892384342.3403, 7.407200e-001, -6.847236e-001, 
3892450668.1741, 7.408379e-001, -6.843443e-001, 
3892516994.0079, 7.409746e-001, -6.840690e-001, 
3892583319.8417, 7.411541e-001, -6.837424e-001, 
3892649645.6755, 7.412217e-001, -6.834442e-001, 
3892715971.5093, 7.412872e-001, -6.831769e-001, 
3892782297.3431, 7.413228e-001, -6.828440e-001, 
3892848623.1769, 7.414242e-001, -6.825916e-001, 
3892914949.0107, 7.415010e-001, -6.823426e-001, 
3892981274.8445, 7.415367e-001, -6.821126e-001, 
3893047600.6783, 7.415950e-001, -6.818822e-001, 
3893113926.5122, 7.416175e-001, -6.817314e-001, 
3893180252.346, 7.416213e-001, -6.815767e-001, 
3893246578.1798, 7.416338e-001, -6.814552e-001, 
3893312904.0136, 7.415183e-001, -6.815864e-001, 
3893379229.8474, 7.414202e-001, -6.817564e-001, 
3893445555.6812, 7.413124e-001, -6.819016e-001, 
3893511881.515, 7.411967e-001, -6.820105e-001, 
3893578207.3488, 7.411020e-001, -6.821196e-001, 
3893644533.1826, 7.409151e-001, -6.822230e-001, 
3893710859.0164, 7.408405e-001, -6.822740e-001, 
3893777184.8502, 7.407218e-001, -6.824141e-001, 
3893843510.684, 7.406008e-001, -6.824206e-001, 
3893909836.5178, 7.404879e-001, -6.824608e-001, 
3893976162.3516, 7.403675e-001, -6.824961e-001, 
3894042488.1854, 7.402350e-001, -6.825293e-001, 
3894108814.0192, 7.401572e-001, -6.825991e-001, 
3894175139.853, 7.400296e-001, -6.825495e-001, 
3894241465.6868, 7.399305e-001, -6.824872e-001, 
3894307791.5206, 7.398089e-001, -6.824614e-001, 
3894374117.3544, 7.397701e-001, -6.824088e-001, 
3894440443.1882, 7.396110e-001, -6.823720e-001, 
3894506769.022, 7.395290e-001, -6.822935e-001, 
3894573094.8559, 7.394540e-001, -6.822787e-001, 
3894639420.6897, 7.393806e-001, -6.822730e-001, 
3894705746.5235, 7.392944e-001, -6.822736e-001, 
3894772072.3573, 7.392091e-001, -6.822847e-001, 
3894838398.1911, 7.390376e-001, -6.822878e-001, 
3894904724.0249, 7.389911e-001, -6.823375e-001, 
3894971049.8587, 7.388653e-001, -6.823634e-001, 
3895037375.6925, 7.387353e-001, -6.823743e-001, 
3895103701.5263, 7.386741e-001, -6.824831e-001, 
3895170027.3601, 7.385254e-001, -6.825955e-001, 
3895236353.1939, 7.384724e-001, -6.826596e-001, 
3895302679.0277, 7.384437e-001, -6.827584e-001, 
3895369004.8615, 7.385346e-001, -6.828701e-001, 
3895435330.6953, 7.385972e-001, -6.830257e-001, 
3895501656.5291, 7.386326e-001, -6.831196e-001, 
3895567982.3629, 7.386140e-001, -6.832611e-001, 
3895634308.1967, 7.385890e-001, -6.833043e-001, 
3895700634.0305, 7.386693e-001, -6.834414e-001, 
3895766959.8643, 7.387263e-001, -6.835247e-001, 
3895833285.6981, 7.387596e-001, -6.835530e-001, 
3895899611.5319, 7.387818e-001, -6.836547e-001, 
3895965937.3657, 7.388088e-001, -6.837161e-001, 
3896032263.1995, 7.388813e-001, -6.837720e-001, 
3896098589.0334, 7.388602e-001, -6.838012e-001, 
3896164914.8672, 7.388985e-001, -6.838599e-001, 
3896231240.701, 7.389641e-001, -6.838890e-001, 
3896297566.5348, 7.390263e-001, -6.838297e-001, 
3896363892.3686, 7.391882e-001, -6.836686e-001, 
3896430218.2024, 7.392856e-001, -6.835318e-001, 
3896496544.0362, 7.393249e-001, -6.834367e-001, 
3896562869.87, 7.393446e-001, -6.833665e-001, 
3896629195.7038, 7.393960e-001, -6.832700e-001, 
3896695521.5376, 7.393686e-001, -6.832555e-001, 
3896761847.3714, 7.393019e-001, -6.831650e-001, 
3896828173.2052, 7.392464e-001, -6.831747e-001, 
3896894499.039, 7.391242e-001, -6.832154e-001, 
3896960824.8728, 7.390776e-001, -6.832113e-001, 
3897027150.7066, 7.389972e-001, -6.832249e-001, 
