"S44 POLAR"
"Frequency (Hz)","U","U",
300000, 1.295180e+000, -8.088429e-002, 
951035, 1.200505e+000, -9.473836e-002, 
1602070, 1.180159e+000, -1.589864e-001, 
2253105, 1.163993e+000, -2.132707e-001, 
2904140, 1.146406e+000, -2.732558e-001, 
3555175, 1.123143e+000, -3.297647e-001, 
4206210, 1.097284e+000, -3.835304e-001, 
4857245, 1.069250e+000, -4.341089e-001, 
5508280, 1.037419e+000, -4.819598e-001, 
6159315, 1.004590e+000, -5.228059e-001, 
6810350, 9.678475e-001, -5.680345e-001, 
7461385, 9.307781e-001, -6.061643e-001, 
8112420, 8.936324e-001, -6.367348e-001, 
8763455, 8.545139e-001, -6.688769e-001, 
9414490, 8.147801e-001, -6.978487e-001, 
10065525, 7.779229e-001, -7.254542e-001, 
10716560, 7.378840e-001, -7.478390e-001, 
11367595, 6.974698e-001, -7.674869e-001, 
12018630, 6.577060e-001, -7.851405e-001, 
12669665, 6.187868e-001, -8.005924e-001, 
13320700, 5.828875e-001, -8.148753e-001, 
13971735, 5.456731e-001, -8.263373e-001, 
14622770, 5.090151e-001, -8.352655e-001, 
15273805, 4.733844e-001, -8.425224e-001, 
15924840, 4.381669e-001, -8.489881e-001, 
16575875, 4.040624e-001, -8.538066e-001, 
17226910, 3.710552e-001, -8.578439e-001, 
17877945, 3.387605e-001, -8.606186e-001, 
18528980, 3.075581e-001, -8.624684e-001, 
19180015, 2.773679e-001, -8.633609e-001, 
19831050, 2.477177e-001, -8.638023e-001, 
20482085, 2.187363e-001, -8.636155e-001, 
21133120, 1.907800e-001, -8.628756e-001, 
21784155, 1.635649e-001, -8.617961e-001, 
22435190, 1.369988e-001, -8.597742e-001, 
23086225, 1.110983e-001, -8.578225e-001, 
23737260, 8.567262e-002, -8.552187e-001, 
24388295, 6.085369e-002, -8.530290e-001, 
25039330, 3.667680e-002, -8.501719e-001, 
25690365, 1.242617e-002, -8.468323e-001, 
26341400, -1.123725e-002, -8.435608e-001, 
26992435, -3.439352e-002, -8.402529e-001, 
27643470, -5.745436e-002, -8.369606e-001, 
28294505, -8.005928e-002, -8.335463e-001, 
28945540, -1.028596e-001, -8.295294e-001, 
29596575, -1.252145e-001, -8.256980e-001, 
30247610, -1.480491e-001, -8.218749e-001, 
30898645, -1.700816e-001, -8.175469e-001, 
31549680, -1.926550e-001, -8.136331e-001, 
32200715, -2.150273e-001, -8.091495e-001, 
32851750, -2.375854e-001, -8.043630e-001, 
33502785, -2.604031e-001, -7.995472e-001, 
34153820, -2.832128e-001, -7.944191e-001, 
34804855, -3.064875e-001, -7.891976e-001, 
35455890, -3.302529e-001, -7.835830e-001, 
36106925, -3.536666e-001, -7.781069e-001, 
36757960, -3.784121e-001, -7.712642e-001, 
37408995, -4.029412e-001, -7.647300e-001, 
38060030, -4.276724e-001, -7.575246e-001, 
38711065, -4.529072e-001, -7.495217e-001, 
39362100, -4.785497e-001, -7.410976e-001, 
40013135, -5.048056e-001, -7.287790e-001, 
40664170, -5.316771e-001, -7.181965e-001, 
41315205, -5.597821e-001, -7.064952e-001, 
41966240, -5.871574e-001, -6.941760e-001, 
42617275, -6.151834e-001, -6.806809e-001, 
43268310, -6.442291e-001, -6.659136e-001, 
43919345, -6.729096e-001, -6.495472e-001, 
44570380, -7.020211e-001, -6.315888e-001, 
45221415, -7.311966e-001, -6.121276e-001, 
45872450, -7.615324e-001, -5.914786e-001, 
46523485, -7.905753e-001, -5.687320e-001, 
47174520, -8.203925e-001, -5.446744e-001, 
47825555, -8.495690e-001, -5.175254e-001, 
48476590, -8.789080e-001, -4.888948e-001, 
49127625, -9.070993e-001, -4.583085e-001, 
49778660, -9.344490e-001, -4.252613e-001, 
50429695, -9.612569e-001, -3.894437e-001, 
51080730, -9.861372e-001, -3.511136e-001, 
51731765, -1.009343e+000, -3.115981e-001, 
52382800, -1.031753e+000, -2.691039e-001, 
53033835, -1.051655e+000, -2.244972e-001, 
53684870, -1.069059e+000, -1.776036e-001, 
54335905, -1.083958e+000, -1.298610e-001, 
54986940, -1.096264e+000, -7.861035e-002, 
55637975, -1.105092e+000, -2.654923e-002, 
56289010, -1.109816e+000, 2.619983e-002, 
56940045, -1.112313e+000, 8.045409e-002, 
57591080, -1.110675e+000, 1.344877e-001, 
58242115, -1.104402e+000, 1.893802e-001, 
58893150, -1.095154e+000, 2.444793e-001, 
59544185, -1.081541e+000, 2.976498e-001, 
60195220, -1.064550e+000, 3.507794e-001, 
60846255, -1.044442e+000, 4.020614e-001, 
61497290, -1.019478e+000, 4.514812e-001, 
62148325, -9.928485e-001, 4.990191e-001, 
62799360, -9.622044e-001, 5.436968e-001, 
63450395, -9.285315e-001, 5.857455e-001, 
64101430, -8.936046e-001, 6.244323e-001, 
64752465, -8.567729e-001, 6.605542e-001, 
65403500, -8.184918e-001, 6.911345e-001, 
66054535, -7.805692e-001, 7.208335e-001, 
66705570, -7.417547e-001, 7.472258e-001, 
67356605, -7.013162e-001, 7.719164e-001, 
68007640, -6.608034e-001, 7.934644e-001, 
68658675, -6.203001e-001, 8.121482e-001, 
69309710, -5.802359e-001, 8.278724e-001, 
69960745, -5.403069e-001, 8.409359e-001, 
70611780, -5.005607e-001, 8.513413e-001, 
71262815, -4.625099e-001, 8.603561e-001, 
71913850, -4.247664e-001, 8.673285e-001, 
72564885, -3.876965e-001, 8.726830e-001, 
73215920, -3.517084e-001, 8.758789e-001, 
73866955, -3.172787e-001, 8.782322e-001, 
74517990, -2.837011e-001, 8.792258e-001, 
75169025, -2.506524e-001, 8.793324e-001, 
75820060, -2.189841e-001, 8.779043e-001, 
76471095, -1.880408e-001, 8.755668e-001, 
77122130, -1.585349e-001, 8.727620e-001, 
77773165, -1.300967e-001, 8.694651e-001, 
78424200, -1.017602e-001, 8.654698e-001, 
79075235, -7.505715e-002, 8.609981e-001, 
79726270, -4.799280e-002, 8.569837e-001, 
80377305, -2.267363e-002, 8.514526e-001, 
81028340, 2.637235e-003, 8.459124e-001, 
81679375, 2.726210e-002, 8.400982e-001, 
82330410, 5.094934e-002, 8.344231e-001, 
82981445, 7.429719e-002, 8.274990e-001, 
83632480, 9.725979e-002, 8.218561e-001, 
84283515, 1.204210e-001, 8.152958e-001, 
84934550, 1.432412e-001, 8.089120e-001, 
85585585, 1.648131e-001, 8.025850e-001, 
86236620, 1.863478e-001, 7.951269e-001, 
86887655, 2.080781e-001, 7.883220e-001, 
87538690, 2.298596e-001, 7.812129e-001, 
88189725, 2.510138e-001, 7.737697e-001, 
88840760, 2.723781e-001, 7.664431e-001, 
89491795, 2.936163e-001, 7.587250e-001, 
90142830, 3.151758e-001, 7.503687e-001, 
90793865, 3.355596e-001, 7.424441e-001, 
91444900, 3.571934e-001, 7.340830e-001, 
92095935, 3.787500e-001, 7.255912e-001, 
92746970, 4.004683e-001, 7.162341e-001, 
93398005, 4.223464e-001, 7.077885e-001, 
94049040, 4.443777e-001, 6.977814e-001, 
94700075, 4.665978e-001, 6.875097e-001, 
95351110, 4.885394e-001, 6.768705e-001, 
96002145, 5.109737e-001, 6.656952e-001, 
96653180, 5.341052e-001, 6.540682e-001, 
97304215, 5.570625e-001, 6.421761e-001, 
97955250, 5.806301e-001, 6.293727e-001, 
98606285, 6.040436e-001, 6.152683e-001, 
99257320, 6.281084e-001, 6.005929e-001, 
99908355, 6.522053e-001, 5.847743e-001, 
100559390, 6.767867e-001, 5.679280e-001, 
101210425, 7.010956e-001, 5.502677e-001, 
101861460, 7.262991e-001, 5.314969e-001, 
102512495, 7.506305e-001, 5.109474e-001, 
103163530, 7.759835e-001, 4.890809e-001, 
103814565, 8.005619e-001, 4.656585e-001, 
104465600, 8.255520e-001, 4.411469e-001, 
105116635, 8.496978e-001, 4.146579e-001, 
105767670, 8.736238e-001, 3.868595e-001, 
106418705, 8.980163e-001, 3.564191e-001, 
107069740, 9.212308e-001, 3.244259e-001, 
107720775, 9.436092e-001, 2.902025e-001, 
108371810, 9.649443e-001, 2.544349e-001, 
109022845, 9.845335e-001, 2.164697e-001, 
109673880, 1.003562e+000, 1.755624e-001, 
110324915, 1.021049e+000, 1.335633e-001, 
110975950, 1.035419e+000, 8.883375e-002, 
111626985, 1.048768e+000, 4.234667e-002, 
112278020, 1.058947e+000, -6.065563e-003, 
112929055, 1.066114e+000, -5.599216e-002, 
113580090, 1.070825e+000, -1.073641e-001, 
114231125, 1.071739e+000, -1.603050e-001, 
114882160, 1.069094e+000, -2.133202e-001, 
115533195, 1.062869e+000, -2.674422e-001, 
116184230, 1.053737e+000, -3.220252e-001, 
116835265, 1.038960e+000, -3.768395e-001, 
117486300, 1.021529e+000, -4.294396e-001, 
118137335, 9.992678e-001, -4.817938e-001, 
118788370, 9.735479e-001, -5.321248e-001, 
119439405, 9.445120e-001, -5.813597e-001, 
120090440, 9.119146e-001, -6.274151e-001, 
120741475, 8.748785e-001, -6.713756e-001, 
121392510, 8.369085e-001, -7.116538e-001, 
122043545, 7.960140e-001, -7.491533e-001, 
122694580, 7.528813e-001, -7.831869e-001, 
123345615, 7.082220e-001, -8.137441e-001, 
123996650, 6.632954e-001, -8.411134e-001, 
124647685, 6.168094e-001, -8.640398e-001, 
125298720, 5.701497e-001, -8.842785e-001, 
125949755, 5.232263e-001, -9.002474e-001, 
126600790, 4.759612e-001, -9.139388e-001, 
127251825, 4.308849e-001, -9.242942e-001, 
127902860, 3.851189e-001, -9.314886e-001, 
128553895, 3.404647e-001, -9.364704e-001, 
129204930, 2.981797e-001, -9.385706e-001, 
129855965, 2.563788e-001, -9.387583e-001, 
130507000, 2.170669e-001, -9.371668e-001, 
131158035, 1.778328e-001, -9.343476e-001, 
131809070, 1.397369e-001, -9.288505e-001, 
132460105, 1.043750e-001, -9.226254e-001, 
133111140, 6.933205e-002, -9.152589e-001, 
133762175, 3.660547e-002, -9.070661e-001, 
134413210, 4.794038e-003, -8.981379e-001, 
135064245, -2.627987e-002, -8.882142e-001, 
135715280, -5.479229e-002, -8.777966e-001, 
136366315, -8.275656e-002, -8.667462e-001, 
137017350, -1.090061e-001, -8.550791e-001, 
137668385, -1.352717e-001, -8.437901e-001, 
138319420, -1.602918e-001, -8.317818e-001, 
138970455, -1.838953e-001, -8.202597e-001, 
139621490, -2.070115e-001, -8.077021e-001, 
140272525, -2.290489e-001, -7.956142e-001, 
140923560, -2.505473e-001, -7.835561e-001, 
141574595, -2.715389e-001, -7.712718e-001, 
142225630, -2.922216e-001, -7.591768e-001, 
142876665, -3.122205e-001, -7.468162e-001, 
143527700, -3.313167e-001, -7.358580e-001, 
144178735, -3.502330e-001, -7.230217e-001, 
144829770, -3.692195e-001, -7.107097e-001, 
145480805, -3.877361e-001, -6.988537e-001, 
146131840, -4.056132e-001, -6.866153e-001, 
146782875, -4.236123e-001, -6.751184e-001, 
147433910, -4.423417e-001, -6.633234e-001, 
148084945, -4.593793e-001, -6.508278e-001, 
148735980, -4.783651e-001, -6.385387e-001, 
149387015, -4.954027e-001, -6.264704e-001, 
150038050, -5.142098e-001, -6.137730e-001, 
150689085, -5.324739e-001, -6.009604e-001, 
151340120, -5.507169e-001, -5.881937e-001, 
151991155, -5.696765e-001, -5.749782e-001, 
152642190, -5.882968e-001, -5.610441e-001, 
153293225, -6.071786e-001, -5.472984e-001, 
153944260, -6.266556e-001, -5.324597e-001, 
154595295, -6.461802e-001, -5.170150e-001, 
155246330, -6.661509e-001, -5.004876e-001, 
155897365, -6.860484e-001, -4.836694e-001, 
156548400, -7.057285e-001, -4.650408e-001, 
157199435, -7.257949e-001, -4.464149e-001, 
157850470, -7.462451e-001, -4.269426e-001, 
158501505, -7.665007e-001, -4.061255e-001, 
159152540, -7.874970e-001, -3.847148e-001, 
159803575, -8.079506e-001, -3.620731e-001, 
160454610, -8.289638e-001, -3.374361e-001, 
161105645, -8.497640e-001, -3.112512e-001, 
161756680, -8.704031e-001, -2.832791e-001, 
162407715, -8.901163e-001, -2.528704e-001, 
163058750, -9.090447e-001, -2.207840e-001, 
163709785, -9.259965e-001, -1.866993e-001, 
164360820, -9.417676e-001, -1.504343e-001, 
165011855, -9.551682e-001, -1.139922e-001, 
165662890, -9.672268e-001, -7.564895e-002, 
166313925, -9.772482e-001, -3.614613e-002, 
166964960, -9.859799e-001, 3.783826e-003, 
167615995, -9.921111e-001, 4.504510e-002, 
168267030, -9.959920e-001, 8.738510e-002, 
168918065, -9.988468e-001, 1.295740e-001, 
169569100, -9.989857e-001, 1.730117e-001, 
170220135, -9.973933e-001, 2.169177e-001, 
170871170, -9.930158e-001, 2.612840e-001, 
171522205, -9.866196e-001, 3.070680e-001, 
172173240, -9.776460e-001, 3.516341e-001, 
172824275, -9.658417e-001, 3.968185e-001, 
173475310, -9.511824e-001, 4.417373e-001, 
174126345, -9.344907e-001, 4.862908e-001, 
174777380, -9.145802e-001, 5.305938e-001, 
175428415, -8.919908e-001, 5.738780e-001, 
176079450, -8.668689e-001, 6.163688e-001, 
176730485, -8.385811e-001, 6.566260e-001, 
177381520, -8.074232e-001, 6.962240e-001, 
178032555, -7.735244e-001, 7.339318e-001, 
178683590, -7.372597e-001, 7.697083e-001, 
179334625, -6.988554e-001, 8.021387e-001, 
179985660, -6.588162e-001, 8.322598e-001, 
180636695, -6.166978e-001, 8.589837e-001, 
181287730, -5.727186e-001, 8.837189e-001, 
181938765, -5.274251e-001, 9.048905e-001, 
182589800, -4.820658e-001, 9.223873e-001, 
183240835, -4.356713e-001, 9.369949e-001, 
183891870, -3.898030e-001, 9.477241e-001, 
184542905, -3.439542e-001, 9.555756e-001, 
185193940, -2.990133e-001, 9.603344e-001, 
185844975, -2.547364e-001, 9.622547e-001, 
186496010, -2.120851e-001, 9.617082e-001, 
187147045, -1.705175e-001, 9.583256e-001, 
187798080, -1.297287e-001, 9.528727e-001, 
188449115, -9.102262e-002, 9.454818e-001, 
189100150, -5.385298e-002, 9.369154e-001, 
189751185, -1.873760e-002, 9.256499e-001, 
190402220, 1.444449e-002, 9.143001e-001, 
191053255, 4.609035e-002, 9.018292e-001, 
191704290, 7.623513e-002, 8.889795e-001, 
192355325, 1.048921e-001, 8.762558e-001, 
193006360, 1.319561e-001, 8.631315e-001, 
193657395, 1.580408e-001, 8.503663e-001, 
194308430, 1.832226e-001, 8.362339e-001, 
194959465, 2.076494e-001, 8.228498e-001, 
195610500, 2.318228e-001, 8.087479e-001, 
196261535, 2.545189e-001, 7.949379e-001, 
196912570, 2.763357e-001, 7.809039e-001, 
197563605, 2.977964e-001, 7.664421e-001, 
198214640, 3.183175e-001, 7.523711e-001, 
198865675, 3.384387e-001, 7.380794e-001, 
199516710, 3.585157e-001, 7.235235e-001, 
200167745, 3.777950e-001, 7.091022e-001, 
200818780, 3.962779e-001, 6.939727e-001, 
201469815, 4.142565e-001, 6.788127e-001, 
202120850, 4.323130e-001, 6.636313e-001, 
202771885, 4.501424e-001, 6.483973e-001, 
203422920, 4.667793e-001, 6.328402e-001, 
204073955, 4.831889e-001, 6.176255e-001, 
204724990, 4.995629e-001, 6.011532e-001, 
205376025, 5.152804e-001, 5.857533e-001, 
206027060, 5.305832e-001, 5.696093e-001, 
206678095, 5.461019e-001, 5.536577e-001, 
207329130, 5.610813e-001, 5.373586e-001, 
207980165, 5.756186e-001, 5.210677e-001, 
208631200, 5.901236e-001, 5.043775e-001, 
209282235, 6.047028e-001, 4.875705e-001, 
209933270, 6.188004e-001, 4.704059e-001, 
210584305, 6.328912e-001, 4.530095e-001, 
211235340, 6.468394e-001, 4.357735e-001, 
211886375, 6.604592e-001, 4.174826e-001, 
212537410, 6.744863e-001, 3.994446e-001, 
213188445, 6.875474e-001, 3.807811e-001, 
213839480, 7.014405e-001, 3.616598e-001, 
214490515, 7.149517e-001, 3.422734e-001, 
215141550, 7.277402e-001, 3.219982e-001, 
215792585, 7.404874e-001, 3.011791e-001, 
216443620, 7.533208e-001, 2.800291e-001, 
217094655, 7.660538e-001, 2.582110e-001, 
217745690, 7.775438e-001, 2.363030e-001, 
218396725, 7.889537e-001, 2.130676e-001, 
219047760, 8.001782e-001, 1.895349e-001, 
219698795, 8.115917e-001, 1.648631e-001, 
220349830, 8.221076e-001, 1.397720e-001, 
221000865, 8.322839e-001, 1.137885e-001, 
221651900, 8.428276e-001, 8.684728e-002, 
222302935, 8.517475e-001, 5.891593e-002, 
222953970, 8.605354e-001, 3.026002e-002, 
223605005, 8.683332e-001, 7.073666e-005, 
224256040, 8.754600e-001, -3.025153e-002, 
224907075, 8.824799e-001, -6.244325e-002, 
225558110, 8.875099e-001, -9.499286e-002, 
226209145, 8.924207e-001, -1.293884e-001, 
226860180, 8.955886e-001, -1.645443e-001, 
227511215, 8.975340e-001, -2.015789e-001, 
228162250, 8.976564e-001, -2.389524e-001, 
228813285, 8.954766e-001, -2.780761e-001, 
229464320, 8.916920e-001, -3.170245e-001, 
230115355, 8.855346e-001, -3.577569e-001, 
230766390, 8.775777e-001, -3.987796e-001, 
231417425, 8.674812e-001, -4.395700e-001, 
232068460, 8.547577e-001, -4.816171e-001, 
232719495, 8.392554e-001, -5.233786e-001, 
233370530, 8.206278e-001, -5.657286e-001, 
234021565, 7.993389e-001, -6.065295e-001, 
234672600, 7.750235e-001, -6.481106e-001, 
235323635, 7.478557e-001, -6.875151e-001, 
235974670, 7.173164e-001, -7.264504e-001, 
236625705, 6.840942e-001, -7.629830e-001, 
237276740, 6.489494e-001, -7.989532e-001, 
237927775, 6.104821e-001, -8.315386e-001, 
238578810, 5.701560e-001, -8.624169e-001, 
239229845, 5.276897e-001, -8.901076e-001, 
239880880, 4.825955e-001, -9.154781e-001, 
240531915, 4.364557e-001, -9.375693e-001, 
241182950, 3.890226e-001, -9.562285e-001, 
241833985, 3.404666e-001, -9.711825e-001, 
242485020, 2.907485e-001, -9.839041e-001, 
243136055, 2.413980e-001, -9.934384e-001, 
243787090, 1.916545e-001, -9.987820e-001, 
244438125, 1.418685e-001, -1.000630e+000, 
245089160, 9.328149e-002, -9.995300e-001, 
245740195, 4.499697e-002, -9.947253e-001, 
246391230, -1.996245e-003, -9.879511e-001, 
247042265, -4.695290e-002, -9.779431e-001, 
247693300, -8.992284e-002, -9.664645e-001, 
248344335, -1.317247e-001, -9.518717e-001, 
248995370, -1.714226e-001, -9.362524e-001, 
249646405, -2.096779e-001, -9.183620e-001, 
250297440, -2.449995e-001, -8.990223e-001, 
250948475, -2.788116e-001, -8.785699e-001, 
251599510, -3.104108e-001, -8.570792e-001, 
252250545, -3.403858e-001, -8.349039e-001, 
252901580, -3.681543e-001, -8.115264e-001, 
253552615, -3.940931e-001, -7.890370e-001, 
254203650, -4.188884e-001, -7.648790e-001, 
254854685, -4.418949e-001, -7.415419e-001, 
255505720, -4.632708e-001, -7.173696e-001, 
256156755, -4.830762e-001, -6.931768e-001, 
256807790, -5.010800e-001, -6.696055e-001, 
257458825, -5.184256e-001, -6.458966e-001, 
258109860, -5.349718e-001, -6.224676e-001, 
258760895, -5.493727e-001, -5.994378e-001, 
259411930, -5.636567e-001, -5.760803e-001, 
260062965, -5.766915e-001, -5.537120e-001, 
260714000, -5.893643e-001, -5.311491e-001, 
261365035, -6.014041e-001, -5.088308e-001, 
262016070, -6.122011e-001, -4.870229e-001, 
262667105, -6.225656e-001, -4.656057e-001, 
263318140, -6.320096e-001, -4.441068e-001, 
263969175, -6.415011e-001, -4.232520e-001, 
264620210, -6.502395e-001, -4.026650e-001, 
265271245, -6.587279e-001, -3.816643e-001, 
265922280, -6.671838e-001, -3.614306e-001, 
266573315, -6.749773e-001, -3.410575e-001, 
267224350, -6.824527e-001, -3.210012e-001, 
267875385, -6.898581e-001, -3.009710e-001, 
268526420, -6.971323e-001, -2.813083e-001, 
269177455, -7.038739e-001, -2.609906e-001, 
269828490, -7.103891e-001, -2.409719e-001, 
270479525, -7.167966e-001, -2.208134e-001, 
271130560, -7.232387e-001, -2.007586e-001, 
271781595, -7.293079e-001, -1.805360e-001, 
272432630, -7.353790e-001, -1.597280e-001, 
273083665, -7.412276e-001, -1.394087e-001, 
273734700, -7.467561e-001, -1.179787e-001, 
274385735, -7.524207e-001, -9.743039e-002, 
275036770, -7.570920e-001, -7.590891e-002, 
275687805, -7.618330e-001, -5.426521e-002, 
276338840, -7.671049e-001, -3.192523e-002, 
276989875, -7.713968e-001, -9.061223e-003, 
277640910, -7.760398e-001, 1.406044e-002, 
278291945, -7.799240e-001, 3.791429e-002, 
278942980, -7.835323e-001, 6.243112e-002, 
279594015, -7.865359e-001, 8.703485e-002, 
280245050, -7.896351e-001, 1.125272e-001, 
280896085, -7.916651e-001, 1.388429e-001, 
281547120, -7.930000e-001, 1.653800e-001, 
282198155, -7.934291e-001, 1.934010e-001, 
282849190, -7.935570e-001, 2.213978e-001, 
283500225, -7.928575e-001, 2.506124e-001, 
284151260, -7.905897e-001, 2.801701e-001, 
284802295, -7.879208e-001, 3.110070e-001, 
285453330, -7.835310e-001, 3.426285e-001, 
286104365, -7.779225e-001, 3.740823e-001, 
286755400, -7.715937e-001, 4.073495e-001, 
287406435, -7.623683e-001, 4.403024e-001, 
288057470, -7.518196e-001, 4.738667e-001, 
288708505, -7.398492e-001, 5.081602e-001, 
289359540, -7.255187e-001, 5.420597e-001, 
290010575, -7.097986e-001, 5.761465e-001, 
290661610, -6.914269e-001, 6.110454e-001, 
291312645, -6.712763e-001, 6.452305e-001, 
291963680, -6.483217e-001, 6.789639e-001, 
292614715, -6.230610e-001, 7.120857e-001, 
293265750, -5.953444e-001, 7.441679e-001, 
293916785, -5.651427e-001, 7.752159e-001, 
294567820, -5.328912e-001, 8.056327e-001, 
295218855, -4.976196e-001, 8.333722e-001, 
295869890, -4.603389e-001, 8.603498e-001, 
296520925, -4.211821e-001, 8.843854e-001, 
